0.996683188292263
1.0793646117962
0.915215281597304
0.731612054185114
0.60970374494884
0.218183217851475
0.0308183621617059
0.0120520416655271
-0.134943358196497
-0.222145388255268
-0.262281933619491
-0.376967339786214
-0.444510987641175
-0.357874112028173
-0.22720524123338
-0.310489021557043
-0.21097827466374
-0.211254906600721
-0.19753773493731
-0.124005318592731
-0.128624584375942
-0.148330675910026
-0.130286501441435
-0.128324649920886
-0.118837254927526
-0.0218230997091662
0.0172378371736435
-0.110159167745195
0.0179755624777198
-0.0663484217967613
0.00824661010588022
-0.0187170449004021
-0.108356779749482
-0.0844510041133697
-0.099884320861175
-0.0533279739881694
0.0459960520001821
-0.0750738510499563
-0.10923587443988
0.0529584163140074
-0.089237577754875
0.0266428728841338
-0.00366454078092816
-0.0582071133979361
0.058790739487788
0.010770497776661
0.166956859550177
0.145758438459729
0.110523125219947
0.186987864129419
0.0488807655262784
0.227823366290043
0.190066053380162
0.117035469801479
0.185979051529042
0.179094991955713
0.2328114130731
0.234741597866937
0.213842710086901
0.2661230532198
0.386410417269069
0.356777318206053
0.325978227931958
0.336324199340373
0.29623017921016
0.378129045942868
0.333030972822754
0.45516595297934
0.308096475975435
0.371413449024732
0.3055163754967
0.457531226081988
0.454045955198212
0.411495525164284
0.285035146830239
0.336280389801048
0.379135601964857
0.42061760009071
0.315417957359234
0.335885316528933
0.23671759541962
0.18862760523334
0.315567096101478
0.200455398287869
0.234915903677696
0.109234311272095
0.108041049979885
0.248499553176394
0.16571345292054
0.0685746627499035
0.170799767153677
0.132124228198299
0.161649924447342
-0.00692687844475554
0.0980241323949556
-0.0330759185065081
-0.0827838737901473
-0.0361177444348375
0.0396246713419775
-0.0238585327162257
-0.105474242575066
0.0564572208000442
0.0243094855828697
-0.0419102359912888
0.0112177939780742
-0.130461343610088
0.0347146759228858
-0.141275507057362
-0.0794461811986107
-0.0490772220718944
-0.143196129081061
0.00573757140388965
-0.158263246999547
-0.117332613993771
-0.18125413003141
-0.0350954210794875
-0.0516854844562618
-0.00680822686421879
-0.0373458735098168
-0.0506042864658562
-0.112013149041989
-0.0151718467020416
-0.0763883686138959
-0.0208348679547199
-0.15222219418969
-0.0347019880446424
-0.0587051574824726
-0.17556464126213
-0.0542290162834018
-0.15825989161368
-0.105061719500407
-0.11057697081606
-0.0486070954810201
-0.0822856639374055
-0.0947985399355731
-0.057632983649333
-0.0560667456521729
-0.0748765494714907
-0.143801362359983
-0.146865777244271
-0.00616579415350446
-0.137305211083222
-0.0917701879361447
-0.0759740710984603
-0.0890130461701777
0.0309862101521269
-0.110285643081451
-0.0412307085110603
-0.042502852929611
-0.0196459461640573
-0.0630772479207897
-0.120841658446543
-0.0460148049926116
-0.0594934059008958
-0.00858571962391984
-0.133482688800765
-0.0901887031880259
-0.134100594881927
0.0172488564062659
-0.12635707262498
-0.0842714745361754
-0.0906314871318125
-0.0192782134683536
-0.0663784195082707
-0.0622054267767393
0.0538855274723729
0.00294510811692515
-0.122587444025566
-0.0231253360848937
-0.0829891559346111
0.0241583410575451
-0.0626127026571651
-0.114572819325472
-0.0310102290919207
-0.0871331575170327
-0.0380575804799504
-0.0895295487619708
0.0666148898735238
0.0168367894334506
-0.016203189344051
0.0878703004626275
0.000232661006252599
0.0228820121788608
0.0655440487443117
0.023504375261079
0.0928806759136084
0.126152683654
0.0667548650693481
0.149052295234759
0.0446806346360473
0.0524311872142834
0.129680901332514
0.143087854251714
0.244705319660036
0.269862131829471
0.162351322513754
0.306673183168935
0.282775540382558
0.225352898853767
0.229695809286356
0.283208875275759
0.242225026751589
0.194224519930221
0.367375599764437
0.359823105793272
0.325368280743364
0.179853748039765
0.291974954664647
0.231056776831266
0.266691106324721
0.27368428699887
0.219685498587732
0.0827128134304736
0.0415255033348759
0.108538365407073
0.0361364377053252
0.149290972531717
0.0165012036385861
0.108359251686101
-0.0179061587214006
-0.064575116876387
0.0501004721127858
-0.0266815664895433
0.0798709025073264
-0.0831051368056966
0.0266519554210626
-0.102552757485061
-0.0262505741944771
-0.075740117034722
0.0662328523888138
-0.0871288265109472
-0.0751391658744768
0.0497105861575127
-0.106079216116038
-0.0601756016424484
-0.129860953869556
-0.0647849029701335
-0.147701581809683
-0.129377265788708
-0.0906022241112816
-0.182970097181752
-0.138566500486031
-0.0813281274085158
0.116432242418849
0.248983452731693
0.382091815511497
0.667311684598087
0.953651286687589
1.10019872814032
1.09055968321728
1.11345812059528
1.20086951452898
0.967924749036643
0.8695971712783
0.603325458786738
0.348874494651442
0.190685708666319
0.0593523415579567
-0.203046243651415
-0.3102758224585
-0.178792865574065
-0.276733142969347
-0.239712286004632
-0.26649023358729
-0.242831417166293
-0.192163815456357
-0.0887082855877586
-0.0115692226621957
-0.0497359486964091
-0.00999090281017498
-0.117437889016695
0.0357912321821434
0.0628169922284057
-0.0386902122991137
0.0713745858414599
0.00723034532632993
0.0997087780748446
0.0733360912308192
0.00319665103111938
-0.0622805008055978
-0.0219238357648034
0.0125905585964025
0.0180483171171309
-0.028837405974707
0.127245033167665
0.00393068081353615
0.0462660143826196
0.0659567087003416
0.149662089977909
0.0362930315255043
0.0231443816019676
0.0706901309149179
0.144352262491737
0.188471808173892
0.13779917994011
0.220185356048437
0.133742693912102
0.193633779810143
0.165486815034413
0.314892750728874
0.319127108182755
0.22763992172503
0.268640462934061
0.257019856223368
0.27151965007328
0.324663893060829
0.411538847239938
0.370846771875723
0.294965355927091
0.369928029490688
0.435663919122219
0.346832307254368
0.36963228233401
0.424048219827715
0.509568372198327
0.413364376755656
0.471497631737403
0.392319163467766
0.423150829976327
0.525561074426129
0.466657744903066
0.421939904085522
0.443996587861405
0.477918591288568
0.393840829256288
0.385315967687855
0.336844053182031
0.35110603469726
0.42872926927412
0.33591559642238
0.416075138053811
0.429499345872803
0.421927260307098
0.279697675719855
0.2101633395481
0.231984729176808
0.270575913012568
0.165602230304929
0.262703254318056
0.167669022871855
0.129214257077512
0.17730579105423
0.228620846567509
0.0523519345080602
0.0509109378819436
0.176957129139143
0.014335427015638
0.0607997352257628
-0.00306294831415123
0.0588206199715668
0.0366596306841328
0.00882290203067376
0.0319569285337776
-0.0424134880170215
0.0673372325198462
0.0757959844833594
-0.00861242477244668
0.0590166665166397
-0.0452913769579628
-0.0796167430007294
0.0289280065283554
0.0278975141373903
-0.0459395371535967
0.0819034310507799
-0.0725247261263789
0.0105881626681116
-0.0846551662815643
0.000617784454106885
-0.0223451117237306
-0.093409304932973
-0.0382598640548244
-0.0453488736994836
0.0195098289135543
0.0979581204423183
-0.0777381003105134
-0.0158993454288446
-0.0462208993136948
0.0233351813378016
0.00374446057383149
-0.000940592970927457
0.0700450093079358
0.0248921631317326
0.0970124182006202
0.0433945686803974
-0.0451289041984971
0.0116440325309693
-0.0923580340324337
-0.0176916798660715
0.0580462533751753
-0.0328030547750671
0.084196470733119
-0.069154095947979
0.0247682591065724
0.109023048720776
-0.0437557701559952
-0.042433848642806
-0.017134551730463
0.0478332672110346
-0.0420753291751971
-0.0713876476961265
-0.0021844194006667
-0.03489089554246
0.0962671633099896
-0.0350350834691463
-0.0324690677394805
0.0817432768043029
0.0332016924908033
-0.0674828863585889
-0.0722394658916418
0.0416923368041348
-0.0693301153427693
0.111723618552697
0.105093898954917
0.0214995296779068
0.0497756927418338
-0.0210226537677992
0.00516692630764303
-0.0360304149593329
0.0173835285358802
0.106810739266837
0.0138596625399442
-0.00532035957805682
0.108741066519273
0.0699262738367648
-0.0543826049682341
-0.0239841083683204
0.135842905139876
0.0583261570419262
-0.00893279979729464
-0.0232493430824524
0.0623075304357469
0.16231883905164
0.107306926062846
0.047047402507653
0.0422637622366127
0.148972490487139
0.18989798542377
0.104689252896283
0.151123890058757
0.10562178224167
0.129661019489543
0.235738695843634
0.261184831728501
0.244762654445103
0.211405478964826
0.304101078013098
0.262592761485537
0.35520645123044
0.378006130526625
0.394398098438812
0.256195643883027
0.373134304446258
0.4152369470092
0.227705202886855
0.377401584706968
0.343655035263108
0.301515979881393
0.335793028053773
0.177926723080141
0.264093229169156
0.144775825878461
0.216743058183274
0.151929430659316
0.153030220257512
0.211257358434821
0.117896412445342
0.135546916177279
0.0444251238662481
-0.0113984632510321
0.0845514387902503
0.125134617994856
-0.0131081815082288
-0.0399415619134718
0.0644223390603562
-0.00340552037427549
0.0350098905503696
0.0689177976917676
-0.0396392867366925
0.109634494847227
0.0629839657755711
0.0993797221164862
0.0890746526913663
0.0476056648043184
0.050078512790087
-0.14669108871406
-0.0916858056707044
-0.166762584075295
-0.232497232313082
-0.0550000110681493
-0.0808713825171137
-0.0936818238357397
-0.134719805631134
-0.00789556168889535
0.132518239333004
0.394477189549058
0.451092727613846
0.693245675169463
0.920695287746232
1.03677957777517
1.20272636155376
1.19365855809884
1.14377583529492
1.05735281999732
0.904539385959392
0.662593670190461
0.342409170258246
0.187323911138236
0.130165510441282
-0.0225183681507241
-0.180075756999028
-0.248764143691105
-0.285873517074976
-0.290515330760787
-0.162452955328756
-0.152189370167877
-0.191648868138575
-0.197954147791577
-0.136332759716546
-0.1131954438016
-0.0944791748768025
-0.108382426798475
0.0619005254922188
-0.0400925195799289
0.0128585021371322
0.0554668123372815
0.0740434602104485
-0.0406938445955542
-0.0568116279680652
0.043041028727723
0.0756229184971956
-0.0586512305845672
-0.0708150544334306
-0.00828119804011757
-0.0499067326827331
0.00064251204079796
0.119446652346346
0.0755812194213028
0.0014644237849153
0.167452281476641
0.0952883238721056
0.0213531191628144
0.165418583285881
0.146435275634747
0.130619771140768
0.218557632824282
0.205713578402204
0.237014337785055
0.157453500498675
0.102468234135689
0.227351903188388
0.320886070792823
0.171960165010258
0.285871676666454
0.31146831707823
0.199995230932466
0.262843996374614
0.405305041824696
0.350918578787155
0.387014719207061
0.431568136000617
0.35102016598781
0.427019986366649
0.471336472541164
0.495016019628149
0.523930465292411
0.445380015224243
0.471282294913315
0.403228001314388
0.505971490294077
0.377735893322564
0.366684781404523
0.492916828196798
0.517708608377635
0.529488061803337
0.46513229746765
0.401098083899722
0.323286292870219
0.442980719801408
0.358327923703434
0.365551107202473
0.305022798927873
0.286703612885812
0.2576984150136
0.381086561714771
0.304869247154574
0.261502751790834
0.20876315703637
0.251589051392249
0.223505391425237
0.249188554177373
0.134222653999109
0.167046590636111
0.0874031200300227
0.174297024650835
0.0525508166563888
0.160835861991125
0.131357226665421
-0.0208747169477908
-0.0603000589795233
0.117917098312814
-0.0284567805144623
0.075983845759701
0.0891611698410634
-0.0735077212742572
0.00119834227141205
-0.0268450464825409
-0.0902202541531377
-0.117171885361958
-0.0998309410716349
-0.113858007702167
-0.125279674565696
0.0312615896480918
-0.120376260983452
-0.116129719125883
-0.0483141819645796
-0.0691060994010587
0.0028310491305944
-0.0749889446934482
-0.00483914611721154
-0.0562919633127376
0.0443799219680688
-0.134470100601405
-0.141094344494634
-0.0662198062299992
-0.054991475559653
-0.0925577818031101
-0.0964800638184639
0.0225339729748628
-0.104235132999249
-0.0398391094031304
-0.0551285422099512
-0.0871139768098843
-0.0453264894592813
-0.13631995345579
-0.0129615734582537
-0.0537315350608316
-0.00179086836569356
0.00708505810308659
-0.00265297326078503
-0.12687442835512
0.0273724784364871
-0.117650148892866
0.00299911583961587
-0.0344414181870356
0.000951008283215676
0.0260232984826617
-0.13452360377766
-0.026689829481306
-0.0589177670809397
-0.111228815916519
0.0236664763435454
0.0470333637701809
0.0135338794612989
-0.039448204640616
-0.0310644726378877
-0.0185995903178517
-0.145773064121363
-0.124959847731701
-0.106639009878754
-0.0865283664295079
0.00785404104987975
-0.0348278729587866
0.0281751637020198
0.00525631413122721
-0.0867109793307234
-0.115112181238434
-0.0942620191351771
0.0429908290794029
-0.033843905812338
-0.0414508181585166
0.00222905945887873
-0.106718068600054
-0.00159981184453335
-0.0286937113900408
-0.00263618480181773
-0.0664848571316404
0.0469619267230901
-0.0832720109507153
0.0353479965814961
0.0402753397197596
0.0232482304198001
0.0867381545803214
-0.0109812590009756
0.0327195954762016
-0.0268551712397254
0.0212376526344935
0.00192915256474249
0.0899132204506457
0.154309098124337
0.128239660728789
0.145086505415425
0.0694294691171207
0.170939014567209
0.234955654036531
0.264304472254586
0.288509198798333
0.269024908212236
0.199883274689431
0.314224505826174
0.279966892989553
0.189526574411135
0.155112488867602
0.281614996476244
0.182867980972706
0.164111250585326
0.161764596684612
0.237951003211758
0.0962544207857998
0.201635594887219
0.152121910810336
0.0482172283245742
0.142516274093238
0.160240249232681
0.0675065346286296
-0.00393281864014121
0.0302589426735799
0.000486305156139788
-0.0641714234486515
-0.0132579476605609
-0.101593590598353
0.057931153654712
-0.0882421713076143
-0.0531880443305891
-0.113198444276201
-0.113291714150626
-0.0402273721352218
0.0153747843198949
-0.0511510404327895
0.015886939526473
-0.119831193252185
-0.0738186557315919
-0.0339365881849228
-0.111875769475186
-0.100752047443248
-0.187812783983964
-0.0933418779664539
-0.143370168544515
-0.158801748660974
-0.188748908751159
-0.283124653058327
-0.170725463815459
-0.121758934432996
-0.0215730966803633
0.0260743374620278
0.218402808673707
0.452060247482888
0.62409593595536
0.745426276806175
1.00395961419908
1.12368913012217
1.06917202493466
1.11646725732382
0.879527521204586
0.740229943092278
0.530894595452325
0.322829989835808
0.0996192120154812
0.0331408541142551
-0.165779080792635
-0.333591167679903
-0.423820190340427
-0.414611836258014
-0.381579915707843
-0.395866590034834
-0.357307135293434
-0.25127091799509
-0.256329807231887
-0.105897629935568
-0.129064805393446
-0.0263644036347592
-0.0790753123399037
-0.00136999852276073
-0.144977997545601
-0.183132269060169
-0.106934476118242
-0.0667373321301723
-0.0885194895497455
-0.0397856434784297
-0.0638632013265965
-0.14409127912289
-0.153965579863491
-0.138378010231431
0.00367247845905504
-0.0644815296243838
-0.00527063243722059
-0.0717235486877158
-0.023318875534582
-0.0550494165042432
-0.103476632002188
-0.0402630015106272
0.00208657694894463
-0.0463339172144926
0.056628493401693
0.0313208490248931
-0.0358935050910783
-0.0458290914663337
0.0841349656974579
0.0131361227021794
0.110274443435818
0.0757237204801228
0.22077176840187
0.119124625442958
0.099708384720091
0.11771856352805
0.150619308916288
0.21388791875365
0.312407657950212
0.269705046162247
0.173972795678536
0.316594167902361
0.26949836264875
0.263132598933192
0.392520111618003
0.268712473457975
0.242294177384196
0.28168349468503
0.35834241430988
0.309102054596497
0.297602208266123
0.284895008297902
0.312512526050682
0.357367796205371
0.328729811466503
0.417903389504587
0.429717562126437
0.285097715488506
0.310649630328369
0.364460895422086
0.291192094765768
0.232772206778451
0.286175177611528
0.220245257945092
0.259340586201091
0.233154657679991
0.268479697859093
0.168128850143935
0.115788664295661
0.0826037381116919
0.102790809135089
0.147302850324184
0.118784272321911
-0.0298228269627548
-0.0279555390732964
0.0877791607184367
0.0853077278267912
-0.0973134646448198
-0.107614556836435
-0.0562622931018054
-0.0318932600290059
0.0374496400420555
-0.0391863531596013
0.00252179551443528
0.00286054981891545
-0.0432223305008036
-0.156952627056504
-0.16311314955515
-0.0954047055841048
-0.160177167142413
-0.128037135407411
-0.104220458709236
-0.222842237766293
-0.143269229784719
-0.142888335301136
-0.213280497345902
-0.213728095789571
-0.19959072789707
-0.192326546668907
-0.122536544043055
-0.0788610807813556
-0.134175489599577
-0.0452772286384656
-0.228621232189018
-0.157585994998588
-0.0828834418836166
-0.168696806836394
-0.1110565674071
-0.0408528415570975
-0.145392610294164
-0.174460404449166
-0.0721976232145356
-0.146890394230302
-0.148045570871921
-0.0345417122341503
-0.182045539025988
-0.126401604069259
-0.175557539104734
-0.10606660817825
-0.183731320397435
-0.0746327137543002
-0.16461524112855
-0.205062889359616
-0.144809694130331
-0.149806646073634
-0.208034468506737
-0.124966975217986
-0.0820440966393075
-0.161442458156698
-0.0938864671080984
-0.124651603618881
-0.076820645641768
-0.0570066989096112
-0.0954069438426826
-0.121135570122621
-0.126756552504112
-0.10787214188057
-0.121937653478145
-0.150427090265527
-0.0819586916300431
-0.142748791344429
-0.202102132439945
-0.0664608290514312
-0.135858223038133
-0.0431544386804019
-0.0784766477513528
-0.201625734383643
-0.112158087616902
-0.0330707109407317
-0.18449068033564
-0.202657228522525
-0.149399751820923
-0.0872754333757196
-0.129802809525789
-0.0580315491673978
-0.182564118516007
-0.156125451886623
-0.00617586628135558
-0.150791268883302
-0.0675597578526394
-0.0235551422747558
-0.11073639670366
-0.00755824980526483
-0.0400314368232016
-0.0718532796193895
-0.0665351497067951
-0.0533043411359366
-0.00275502816502361
-0.075468997065033
0.0668527901643469
0.0678429140134976
0.117678476331502
0.011219711783059
0.0762132098130534
0.0451496453853326
0.116550849648334
0.164433252202484
0.0908996574011289
0.152823388405518
0.205366565897711
0.202709276859065
0.111924066416517
0.220825481907862
0.163307751010016
0.170612796487511
0.261879128732216
0.277315202103446
0.145467824533231
0.207314405507572
0.209852971006638
0.0482951139719079
0.0876365242846289
0.0409348176031402
0.0710222093768403
-0.0343627733176143
0.00849667794669889
-0.0322960120647202
0.0704085296619746
0.0451637133394053
-0.0119127239375024
-0.0175557582607695
-0.0432221814938854
-0.0317961785040422
-0.031198899763391
-0.0907555830545139
-0.0913640028397343
-0.0431462800338545
-0.114492194654161
-0.0986815134913234
-0.168672993365256
-0.126416522090375
-0.193645469222813
-0.0860234095359099
-0.0450634677844617
-0.195469827239945
-0.224873392864181
-0.0767668603589407
-0.153507137463496
-0.324456404411696
-0.330111998910791
-0.227397057282085
-0.235387196965769
-0.264090178898555
-0.106206721246308
-0.0036464709498434
0.0148413797243277
0.164357173424659
0.368910922111687
0.52515012617956
0.838645110090089
1.01109697640272
1.04988121530975
1.02054768865517
1.11066599099869
0.887052739930585
0.728828361278943
0.553671650532468
0.288901164626103
0.0720005866223316
-0.0699951663863761
-0.276193980325681
-0.311947637707556
-0.414466900160925
-0.48012405550752
-0.326952692607207
-0.266768515656908
-0.407463940992521
-0.290828662387607
-0.267738642787196
-0.131335427150617
-0.225430440369219
-0.190524852142231
-0.146676179017027
-0.120289685727273
-0.163769935450151
-0.0970100870982013
-0.112201711650239
-0.0270842603334129
-0.0553511929860898
-0.0686939065105459
-0.0995494588199263
-0.0178879325463126
-0.0456072266155124
0.00784618456183278
-0.100515870697013
-0.0891440122974083
-0.0764317149446835
0.041226184030122
0.0533688876563323
-0.087093123236179
0.0210462152852447
0.0363395280466378
-0.0510235503498719
0.0777496843617789
0.0543109516404898
0.0533966563948574
0.0886004115418392
0.144731142626428
0.0618797672381242
0.0129550074421438
0.0831444228955754
0.138321592433569
0.23095950988719
0.163169600039621
0.193235627706168
0.291601147343651
0.299691128084234
0.199404300123945
0.182122288706823
0.234383799128491
0.209846279497457
0.348018801696234
0.310495959994873
0.414327697022554
0.318845651763671
0.403185013848998
0.379711919131655
0.430375463082536
0.382439638228258
0.412531362323776
0.324570620271624
0.369315969947063
0.445936630687774
0.357032292573727
0.336125350141539
0.339545625210455
0.282157351201063
0.408379747572116
0.298596326641172
0.230532670636032
0.251992686560554
0.326510211298896
0.320830440333624
0.29111989650203
0.282416762868687
0.13090694245644
0.123517694851423
0.143996134072764
0.183276771957577
0.241654562448525
0.210661638992361
0.0642238794278069
0.150185635761601
0.114562860427707
0.135952755595898
0.00325411418309809
-0.0161025612677389
0.0280726791100763
-0.0352126976941934
0.0444035085757206
0.0275097078226695
0.0191194091889465
0.0457563960010663
0.00287975822893685
-0.0530467499249385
-0.140120115974487
-0.145032296272043
-0.0171330452142987
-0.0317217308073071
-0.0643146536072162
-0.170097507854293
-0.163379359325003
-0.153521092145008
-0.0201930995311662
-0.122405497262418
-0.0158089080958329
-0.100578361303082
-0.13183938408764
-0.147256205337219
-0.0831395433597507
0.0053527248306738
-0.0159170524972871
-0.109807739214848
-0.0851114180719691
-0.138288126084009
-0.0986017116989036
-0.0770914008481439
-0.118614790319191
-0.0456862867124445
-0.121993472924091
-0.0179226462161309
-0.14334618191492
-0.0720560392438671
-0.150650314777145
-0.115021070325165
-0.0330457384074835
-0.0501580154182348
-0.0908306037228665
-0.0537372949501817
0.0147380897744721
0.0128865607672763
-0.0527505188484756
0.0177390381650328
-0.133469278435112
-0.0474360069220754
-0.0932726805918389
-0.117095509092245
0.0152849222525855
-0.0573369164794047
-0.0376152256364053
0.0159916806370932
-0.045067539210712
0.0194581676498803
-0.0791654759239402
-0.0591140684016595
-0.149587714901855
-0.0108092390695977
0.0444416110931914
0.0285556188788389
-0.0387958658285094
0.0101750636630209
-0.00746211845764452
-0.0989112308116567
-0.118225728713053
-0.0346058017504407
-0.0946837368774518
-0.0991282116758342
0.0154153597416642
-0.00658397272871864
-0.140587458754224
-0.0141766449249985
0.0521748697997255
-0.0746945441749829
-0.010893732128083
-0.122918468389669
-0.0968016509775036
-0.0299557336764877
0.0323523439389187
0.0224816631486301
0.0143531045050688
-0.0690677793728089
-0.0766781899677317
-0.0238028957337631
0.00123326063737119
0.0318594048858395
0.0105924522077369
-0.00723492398943563
0.127280021791781
0.0619528144635271
0.129729377255433
0.180377158077024
0.128526898847018
0.0653826579334644
0.218163754334839
0.187061245751385
0.161239360601384
0.255132189779126
0.318660178535936
0.308994636262645
0.269089833134857
0.3156736680952
0.271044064113554
0.268162782900219
0.370517598168186
0.302482348486014
0.210562227465892
0.24199955667203
0.201170842734496
0.178554231637808
0.219824349393621
0.303288397199894
0.277575982772863
0.0874388993086822
0.142176861852221
0.137934190828629
0.0597982574948197
0.0577267605596377
0.149366324102214
0.124677927517399
0.0655343626052021
0.0841120585855796
-0.0021377550685539
-0.0317964007755159
0.00142696112461207
0.0463285681806154
-0.0845658065927373
-0.0705083645520368
-0.0878979874921436
0.0367289840717308
0.0789797379433136
0.0170259624458553
-0.0982121587110408
0.00287338932177791
0.0293063095878461
-0.0874761533643949
-0.0167439923667583
-0.100377586052371
-0.061951832556994
-0.186727516350954
-0.151628803884783
-0.107870443790722
-0.258742789610786
-0.243627033699965
-0.0896526223803685
-0.00999145827653156
0.103997507088065
0.380712051256905
0.506055966292215
0.754342044945185
0.845666969508185
0.959556830469081
1.19231173494002
1.26833182654396
1.04019478395901
1.0294278241889
0.745804163772725
0.670927264445469
0.368805561921775
0.20995922639448
-0.045234079879479
-0.169135395021989
-0.242440921460657
-0.352459521080534
-0.369244193165366
-0.354302097317597
-0.161398233715073
-0.276280449818923
-0.255747218234259
-0.109159652306132
-0.0841686344971789
-0.105435266053511
-0.111336493350827
0.0464466188578186
0.00317677951423865
0.0870826012130528
0.0205031406304982
0.0884558685254249
-0.00151315442963724
-0.0791946083264618
0.00289692851051271
0.00990986877107413
0.055702363289146
0.0131732941476103
0.116309238954459
0.127568162788806
0.121346806984119
-0.0380448771881016
-0.0219014786074985
0.13092245767842
0.100237025886829
0.0820473446410615
0.0611125055708581
0.152972019757919
0.172738608464147
0.0811591295632602
0.0747129586020874
0.208787263116379
0.240272784783737
0.204451357610628
0.208198543706732
0.295673065034159
0.15609983442031
0.173531042907273
0.28996140456429
0.331756541407263
0.263510283832289
0.394355571175296
0.323920636436073
0.300327984674395
0.425881924284823
0.29150076028939
0.386266561234488
0.472647613809112
0.369836349955523
0.4775239377165
0.364770324524375
0.480437734524002
0.419951533476442
0.4982302213448
0.424360540735756
0.499277043814459
0.537134297323787
0.538896223444088
0.55788637412671
0.383163542712676
0.475485096741224
0.471879820685722
0.463685783920387
0.509117397925202
0.501665179113703
0.326121040924741
0.460674244577068
0.391955845831542
0.389125952279967
0.414865158727002
0.218027416719408
0.383896293450644
0.264916320632161
0.168219238250412
0.248840866070462
0.193599741075421
0.246022236263284
0.189495143418986
0.24789182113378
0.237495681808423
0.0746475850529997
0.0770483359005897
0.147330864125483
0.0257235744111691
0.120427790638875
0.166152674604204
0.14464103960406
0.0857550327358085
0.0164377809198492
0.127313725103993
0.0763565524081026
0.0510205944188991
0.00178770692046239
0.0675230239496301
0.0627572932563099
-0.0665330693787946
-0.0356659407443233
0.0572239762093982
-0.0841998224831693
-0.0422200960863439
0.0124866870692118
0.0770801024492977
0.0760659703461801
0.000767164358584938
0.0113621372736936
-0.0306928546759138
-0.052433596747939
-0.0254250416704769
-0.100522584695188
-0.0758281917084398
0.0609990642344151
0.0498978179857996
0.0113597159921562
-0.016837108156485
-0.0234812251822789
0.00663122771771369
0.0453887932810068
0.0817955113103861
0.0922550462351098
-0.0363536362406772
0.0743846761741235
0.0904684214335016
-0.0531185239024384
0.0638052049334105
0.0930711549203961
0.0844302352313819
0.0328758001456644
-0.0868153319990348
0.104262687762645
-0.0554327504191066
-0.0417210474963767
0.071778279504739
-0.0841990119004182
-0.02592363992637
0.0492353473202347
0.0209441646026482
-0.0513085716097904
-0.0304426738912071
0.0455360004910351
0.0256692099497981
-0.0237935651516561
-0.0742973981614492
0.0523979591091
-0.0184274814821287
0.103233829327385
-0.0658705687318051
0.00744143419678849
0.118513051177503
-0.0104844725454407
0.0345848998089564
-0.00578663629241948
0.106542505284686
0.0750430094406128
0.0107197155668905
0.0678060458646744
-0.0156386556662742
0.0500425175600082
0.0306827357701567
0.0938015471665392
0.0352649809668548
0.0835760841233956
-0.0213568656112958
-0.0531397333341415
-0.0240286940394376
0.0510949558561026
0.129368178635939
0.037752800315303
-0.000957546043926116
0.102942052451893
0.0999849960686107
0.0671093155842501
0.0947681953014519
0.0303897567535472
0.182658592777931
0.125554061125352
0.159648496753027
0.257273253323666
0.197928004090643
0.246932148361579
0.125916257871734
0.251914363917578
0.356134849687341
0.267003811431445
0.327643174970141
0.37640502244921
0.339484095576223
0.236149266249185
0.266909323010544
0.345907897598988
0.385319387138351
0.359375072446578
0.344653295233525
0.245186914611432
0.307991305759649
0.349346295424233
0.241152641470888
0.209636452868017
0.244964587720183
0.229828734507325
0.225625468491956
0.212947161163323
0.0647434694397086
0.103328239716456
0.0663371798468868
0.034040035818024
0.122363130886142
0.0327628058739047
0.0973528693818227
0.0559462747700131
0.101855035528797
0.0385101709329866
0.0510412812697134
-0.0518998853066284
0.111303819053172
-0.06672609549833
0.0456005069860137
0.026296125670676
0.0785025298717688
0.100374960319613
-0.109609658437109
-0.0443783572318849
-0.0180112679021793
-0.0656981210788288
-0.180753125627809
-0.173732311937793
-0.129020476464342
-0.227784265269779
-0.198873241053499
-0.138720312449385
0.0405682987862511
0.216242291400828
0.357390166355086
0.560787884587073
0.663277347244685
0.838274362193664
1.01842363672076
1.1791240552225
1.14592374398103
1.19789525229512
1.10166131031685
0.943865097261212
0.689584922026495
0.324988639646282
0.179723316312823
0.100917895954232
-0.0761900894710645
-0.144990237410111
-0.278592645512143
-0.3569549505591
-0.206596657960239
-0.338817844222858
-0.267807900809462
-0.174381883668746
-0.0711049529108388
-0.0220826994906642
-0.103141813234895
-0.0472444194748636
-0.0564644638142257
-0.0529979347486739
-0.0287119188471771
0.0586970226540646
0.097381335089504
0.110410569881544
-0.0409283494773009
0.031466500081703
-0.0794725810424611
0.0166624709485299
0.0745024011145275
0.0121241853505369
0.0353606522383416
0.0849810650846527
0.00563055501402996
0.0130415808518392
0.153160279300225
-0.0253930665556787
0.155174617395651
-0.016672293223615
0.121324449176269
0.0528093341429056
0.17843430134564
0.118368829310561
0.165135719371377
0.163130655699606
0.179312220088135
0.156003153711712
0.131486734322368
0.219764822710813
0.275652547487409
0.28776703032514
0.176494065486383
0.196517814708348
0.303108342224569
0.277159592747808
0.250423024570903
0.338562789676351
0.26885893240258
0.32784880951996
0.338211232343331
0.380643851391309
0.498568999579086
0.43046000989164
0.380216102791588
0.44544665851004
0.491757704881479
0.440870172495908
0.450841523909628
0.530378254911533
0.421627302385804
0.427454157188114
0.346141100474414
0.465981139739284
0.453729021793365
0.481071598574109
0.365661420343336
0.317291925577633
0.347253598842566
0.387161186665383
0.290009680246559
0.265470422529451
0.353887562908773
0.258828664121607
0.31376326815386
0.314059752210503
0.139942267728735
0.192733268312662
0.184725492597481
0.149476931233268
0.245298483089198
0.192011382443234
0.154263955258059
0.177266749587751
0.091582820865369
0.0475036096257854
-0.019871667936598
0.062207464633847
0.131212086696141
-0.0579682688671567
0.0607306122357225
0.0368658364464247
-0.0630314330675792
-0.0817624175300485
0.0738756882720617
-0.111548484301675
-0.0886046153945352
0.0609586718247199
-0.0643475134085803
-0.0886054241749685
-0.0397936720318068
-0.0202890887039095
-0.0835413356197928
0.0133383331594268
0.0087091944114569
-0.115744511766542
-0.0305552917776421
-0.0345646969579354
-0.0857018431126321
-0.0803126238092922
-0.10025341621355
-0.0580882536000102
-0.089909022926097
-0.0989791839483725
-0.152555147703705
-0.044572381427274
-0.0277478464552257
-0.0233182956086942
-0.100964904362185
-0.116143735910196
-0.128840327726847
-0.0911813052306027
-0.100921342959396
0.0432776825124784
-0.0919094954856957
0.0357510629725304
-0.109376090779649
-0.0195847508049775
0.0424897304047755
-0.100649667696256
-0.0511558802240323
-0.0622875062813763
0.0357812393410974
-0.110561741470578
-0.100526329922931
-0.0738712748985302
-0.00615172491543072
-0.134138018569292
-0.0471504233519996
-0.0992693641857662
-0.0480485466587559
-0.11581014947487
-0.108004245226
0.0116288648041006
-0.0917320628121898
-0.0859373262456426
0.00129906233056867
-0.00272757598321498
0.0416811058218386
-0.0526790957492921
-0.0961612005208514
-0.0937224960921897
0.00920513738533017
-0.107144237260721
0.0491039646349584
-0.031255720189619
-0.0023453678778592
-0.00521250611735366
-0.129728895000886
-0.126376620871664
-0.0107872163594244
0.0257233308871819
-0.0310557229289973
0.0163790463282115
0.050544775010262
-0.100541745861655
0.013867288532878
-0.0978383463481003
-0.0623654682264286
0.0494456229667131
-0.0843631330601966
-0.0423517672727701
0.00687889889527202
-0.0810632940399714
0.0719951457785278
0.0365466592344287
0.0256992926419587
0.101150603665055
0.126267767717964
0.0341102952000631
0.116329358142824
0.157380615436356
0.102197269844212
0.195292416494494
0.124787200231259
0.245194116406732
0.197289427996398
0.117495669374132
0.249702858291763
0.152462630734009
0.273575394364987
0.201556154728667
0.192688505730678
0.260131864576025
0.186367688527816
0.131747134492563
0.140625116754826
0.245006078089121
0.208764966081053
0.112167348402604
0.135279405565348
0.0877653637161319
0.160791086742448
0.0470730710042954
0.0240869739905125
-0.00265356854523739
0.00343995828255106
0.0592994560130477
-0.081791776383907
-0.11046058908838
0.0266629385520913
-0.0344806128201936
-0.0958547115033121
-0.0332105537103475
0.0420932155586923
0.0336248530234675
-0.103432537170631
-0.0992591061518528
0.00754003487167483
-0.0607125909305035
-0.168463674549667
-0.130257024640318
-0.0873541365369071
-0.0425707643939957
-0.105833234539855
-0.194897033003785
-0.11868861971611
-0.206359413177753
-0.231036250986219
-0.321122087653162
-0.226835202467321
-0.195486663103001
-0.0345497159427831
-0.00692452349301698
0.20663110625851
0.336154029934246
0.70098646072178
0.770545746242783
0.975278631964098
1.11279150672763
1.01925008719388
1.14090851898182
0.953800169760414
0.826709478046459
0.469870395672126
0.270454964431739
0.0823512337564045
-0.151554353495496
-0.281088766677636
-0.265882462568793
-0.312115184902775
-0.316056956817683
-0.361762073879367
-0.327773523933163
-0.216839065843944
-0.252138017612273
-0.245411213224057
-0.248791649216624
-0.1592977555621
-0.168463225949324
-0.138300091674105
-0.102578235908081
-0.181188109874974
-0.0290693245877432
-0.104260275696367
0.00127450706239864
-0.133642729231124
-0.0596895461947253
-0.0425557794739427
-0.134264055878538
-0.0663750428199056
0.0106607984497286
-0.0102086937763318
0.0188435401098292
0.00407884079520476
-0.105398173310794
-0.0511258305451426
-0.0635888641595622
-0.0441866636815062
-0.106341481740108
-0.0199406408777217
-0.0416061211101011
0.0770374163562927
0.0712116475237936
0.126008628781741
-0.0337470588101244
0.024053457674156
0.0477248279521169
0.00970308367776304
0.10013877410438
0.20909251184061
0.177545363511997
0.249098823526552
0.10004883432174
0.107643645291905
0.308144813769681
0.190808929519612
0.329365248430464
0.232767851716545
0.248344605103736
0.27815068928249
0.222940882504126
0.396605377184738
0.287579468759789
0.415099108646183
0.431406225835645
0.278029781451109
0.405521623869465
0.390953053222118
0.320784060780213
0.377269240184445
0.291651648059701
0.261506920491301
0.304533223154403
0.370600593501262
0.275450955745449
0.276490972970249
0.252597465078914
0.347822578215659
0.270854626602114
0.164669638299578
0.235353993566905
0.187228298304798
0.115736947796442
0.267789452810989
0.196855072768494
0.161611616543529
0.154332970281469
0.124896967234169
0.11001092142596
0.0638723959841332
-0.0247271503789767
0.120623390358008
0.091757907985152
-0.0431566877243789
0.0315665229054604
0.0267669773487379
-0.127730726302701
-0.0383146300220408
-0.150138044520152
0.0109030881561656
-0.00247047933701271
-0.126856680086861
-0.0340304666537614
-0.0851403595438849
-0.0841536823671164
-0.11162200707792
-0.0912748392606306
-0.109280216436492
-0.102697747532704
-0.116510058142166
-0.16609563456698
-0.167087390836775
-0.0558673916612658
-0.19836746213815
-0.0709878809105152
-0.169801208355046
-0.227664808149735
-0.137942669242363
-0.0754911101056044
-0.131442358626497
-0.163578189808857
-0.0718427161699473
-0.0511663598233062
-0.0674679558496638
-0.145247529470556
-0.213380219536834
-0.045567719436566
-0.225784109679889
-0.184097844835301
-0.0497498557835909
-0.174041176349886
-0.0393389255461249
-0.147483375881013
-0.2148824202057
-0.187236375498197
-0.173372842395603
-0.172633431402756
-0.119851798429378
-0.169212236413297
-0.154953468242992
-0.214785984589878
-0.0901099739925148
-0.157949716693409
-0.153427865053456
-0.0512214692824061
-0.184109559668733
-0.219104878336005
-0.198370014671977
-0.0747574830301441
-0.106966854740642
-0.207071620854629
-0.033244606096212
-0.0631871484948257
-0.0300240336328553
-0.155620290755172
-0.0654993153025084
-0.183596787848696
-0.207587287626825
-0.189071138954793
-0.161619647806906
-0.183311119220544
-0.0504169142193461
-0.188839973681773
-0.188483343463836
-0.212293023159018
-0.0894015404173005
-0.188802929805732
-0.118603111045966
-0.0386766878236225
-0.173516605519774
-0.141965842949946
-0.0865483037020232
-0.046263076337777
-0.0866175958433393
-0.0652866215222845
-0.134946219776585
-0.0232615067843859
-0.00740458767757496
-0.152362907088571
-0.0649438697505084
-0.0143235336098157
-0.0430997546710434
0.0418112658926381
-0.0910495983712754
-0.00408036072029265
0.0534349621416776
0.00686515375169333
0.0254378471243509
-0.00984191167654302
0.0377924578457438
0.07073854804377
0.17107752334638
0.0492684670052797
0.131102294045351
0.177736028138045
0.160742653607866
0.111340582972205
0.26725048132542
0.142485803324691
0.249751747960761
0.229991416953625
0.273822596971568
0.0983612244006304
0.211619146753674
0.128092424603348
0.215082904481312
0.128534267387565
0.0391697330030919
0.0691274119567605
0.156731579908473
0.0828945131670382
0.0271135527703174
0.0470454775437596
0.0580001850726341
-0.0204396104856601
-0.0432750357446196
-0.0883006221625664
0.0119969737375409
-0.0799951029814971
0.0345099283621092
0.00610001636659886
-0.0325906269723859
-0.0452441298522736
-0.0637655419172516
-0.140104154764244
-0.141370645420132
-0.0739318848086711
-0.0823068818341981
-0.11871343615807
-0.174592601156043
-0.17938305059931
-0.0775575112485168
-0.190182012230862
-0.0810478055415137
-0.271184816096626
-0.184850842208525
-0.247565238395484
-0.181895266129279
-0.281642492709945
-0.180125062836278
-0.234651179693527
-0.0417164209498464
-0.0348259926415124
0.186701025420078
0.421237717719311
0.624494854041823
0.863468937988949
0.87392309212226
1.00081028892378
1.08696773361286
1.06801469412992
1.0031426542497
0.752539220503312
0.479918905254002
0.325302211984097
0.190972477623532
-0.100953814529524
-0.137627500918549
-0.258488593825342
-0.39103390158422
-0.342016320047247
-0.46484755968705
-0.44806897784441
-0.386118779648242
-0.222136300635176
-0.187836776607699
-0.119647325479975
-0.129524225150166
-0.129663575346021
-0.121005266672973
-0.196972171340387
-0.0373212631716487
-0.161571237154795
-0.0766598406025379
-0.0753429892305804
-0.106941150412584
-0.00323099189300532
-0.023189587064704
-0.115278825166999
-0.127601095370302
0.00526207214026826
-0.125073674671994
0.0396250465109864
0.00742016422824274
-0.128902198968479
0.00156502561643058
-0.102387662481364
0.0471652490222458
-0.020440397327907
0.0573159774488815
-0.0745367914843097
-0.0162062671807336
-0.0309629223470848
0.122870248182166
-0.00690809666464129
-0.0223587747455733
0.139298343518368
0.0627119952723018
0.0315422470406225
0.0876266381452913
0.105864476051582
0.233538257654407
0.213454938368088
0.124943235163332
0.302362627668384
0.279964930575997
0.261385116642071
0.321294290569141
0.307988805636859
0.235580682335884
0.346470902121716
0.404773271729691
0.373156280263341
0.370782911986749
0.410192839130311
0.466379098831086
0.316759856695871
0.480903177083635
0.35543964318012
0.366606790525882
0.301317570694486
0.442364926716221
0.326937343777009
0.281913293909801
0.264525166482047
0.426227286028502
0.410800979718075
0.285413578580028
0.226881198573753
0.373021013768488
0.170154594121472
0.144113543306969
0.24770569479003
0.265323329711487
0.100051377221871
0.227184363824222
0.196181451054183
0.0377346450645599
0.0484703263456722
0.0284981718163648
0.170432048447334
0.158272527137697
0.0313363101861965
-0.047454429641184
-0.0303894880981109
0.0654164084918803
-0.055208712141041
0.0379203173100665
0.00474295666857038
-0.0894964039257321
-0.1324477299237
0.00860627203937919
-0.0507508962384596
0.0198630504199163
0.00667843873074464
-0.0395093622078249
-0.0781884675204528
-0.0495909251471259
-0.0920604050859258
-0.0427361706510569
-0.154761499329922
-0.0205573641542117
-0.125110651993338
-0.154274694584923
-0.0966741433670705
-0.161607835203619
-0.0147683478925493
-0.0721066077577587
-0.171627982093543
-0.00781101029926572
-0.0431627685652654
-0.178466203091445
-0.0355457059770394
-0.00621632434900474
-0.022232832826208
-0.115941975822252
-0.163951639020772
-0.0765387578503478
0.0119015795782703
-0.0834760811587997
-0.134518802378372
-0.168527734937288
-0.0820964365063546
-0.0290355727813974
-0.0256592756066229
-0.139155249788792
-0.0327766281883603
-0.00154019313811125
-0.0187147510905915
-0.148111722555173
-0.126416972403232
-0.116965012676304
-0.11912389002809
0.0305246488876207
-0.0295724031859636
-0.0236211786693329
-0.0941278623381737
-0.11543491963178
-0.091706814132097
0.017827238584886
0.00843630198412172
-0.0268789416734901
0.0113967477029906
-0.038506966076496
-0.131444518859606
-0.0420836617392663
0.0219327490074761
-0.0933605589146607
-0.0963486217493341
-0.064671191366426
-0.0933234707003346
-0.140832457063067
-0.0851508412222496
-0.109535658910895
-0.00422342893294694
0.0434533810288451
-0.0446772184389433
0.0354884451113712
0.00898040542465748
0.057592536170413
0.0166154694191949
0.0154857432632283
-0.046089242434742
0.0682166331121381
-0.0535954060089288
-0.107400736068263
0.0240204804610921
-0.0215827714030977
-0.0179301257340691
0.0637925163258745
-0.0256882269901637
0.0148543081404693
0.0318664524661464
-0.0121820802764947
0.0513411380335226
0.155473449977013
0.13474456679238
0.00233515033045817
0.0682067194940725
0.189237067330178
0.0610679151231087
0.18693407267636
0.216792200661815
0.237814799574988
0.228898996293405
0.191200076965836
0.155856850802276
0.296856750004909
0.220095613193865
0.255975290721041
0.269158293360419
0.196068358482834
0.256654708753794
0.293774302189696
0.343519426648295
0.284951642286228
0.239228076846157
0.252421958594098
0.115630009939857
0.15567830052783
0.190491986427162
0.240912914090371
0.206824611927877
0.0815605320027971
0.0925307788261352
0.0610596764742514
0.0675881330663774
0.0331665971911542
0.0219843487265848
-0.011496417877962
0.115330753091481
0.079462556182766
0.0371927206726589
-0.0497440007645576
-0.0325658685286757
-0.0613110106447997
0.0874609707772833
0.0253985310343703
0.00415424842694411
0.0774987687745735
-0.117806445374516
-0.0831439356920812
-0.0911491847963309
-0.153455671054848
-0.156482681495152
-0.144745323534395
-0.0848430060596085
-0.245228995095831
-0.0886878828803225
-0.151064993426961
-0.0445504962658977
0.0889417471023595
0.113861527756733
0.203603337216061
0.427071184073457
0.69216631147825
0.93992477302429
1.09259534208589
1.18230759981435
1.18770438406216
1.08867385612515
1.02983376670289
0.78203185493553
0.613556083433538
0.313120154105131
0.163027853850886
0.0795923892807085
-0.0684392495178896
-0.313276505496295
-0.356185908190264
-0.298698226567016
-0.303403444495344
-0.32568959693429
-0.230447182852807
-0.173132326591121
-0.098291203914845
-0.126853515356162
0.0245917119320348
-0.0337133311298957
0.077149456447008
0.0613705800421375
-0.0428764923627479
-0.0203051789467792
-0.0767786484926151
0.00139296605195627
-0.084963197402915
0.0430123211242518
-0.049742565379491
0.115240561160188
-0.0536632527680981
-0.0464783281557152
-0.00734435192232746
0.0330369589586417
-0.0338864235206604
0.103392393599002
0.0243198845920363
-0.0037374869651589
0.129129600012792
0.120868750823947
0.108103758655993
0.105838854672555
0.058434556869718
0.0724687560936889
0.104784441245371
0.210659478785021
0.236557496554886
0.244892126502159
0.254433031016542
0.271987215106269
0.263994056411725
0.297022075327651
0.337789260094897
0.260185639447771
0.297643309987819
0.303111991441844
0.324198608012033
0.428720719419595
0.345308483388135
0.350081562668915
0.444320997242379
0.377417947087454
0.388499316391798
0.392106839111354
0.42767892170069
0.390291328847344
0.417009627190903
0.531919298090729
0.47708017073268
0.477296100454297
0.463401359554736
0.418532235062679
0.416784256899458
0.507071669503055
0.513463796963689
0.490632203131388
0.426862809759446
0.341401230506936
0.431634160007643
0.292094804753112
0.44572864991651
0.393772835936522
0.368097850006888
0.361654940998959
0.318454225921918
0.249230426678639
0.227619086241524
0.338645425769174
0.280179012615459
0.303949659787068
0.217078513770043
0.243210957361308
0.0907532675911107
0.123015661563092
0.219503794860082
0.0724428938901855
0.0661874512108949
0.0757621566655367
0.136141193624784
0.0994056207621161
0.0611764864372649
0.110367535484824
0.106897062576093
0.0102588685676721
-0.00527520421984188
0.0998833474217232
-0.0523159867815739
-0.0763492280244581
0.0294666165381935
0.0605767061292388
0.0720697704514194
0.0660835678673225
0.0415783043626723
0.0706070313647038
0.0923075526328701
-0.0747016263621356
-0.0109908586772502
-0.0562898187079343
-0.0569979962198823
0.0590990155742883
0.0155074158607166
0.0480837148970323
-0.0544012321071613
0.0645314430411148
0.0816234317238733
0.0422813373005181
-0.0765613452088073
-0.0072312941021576
0.0109728065463524
0.00967088970378243
-0.0441934173396414
-0.00630846718670801
-0.0609969430222118
0.0482385622951444
-0.0297750020454994
0.0876475408207887
0.0034188426427714
-0.0624856997301879
0.102741273254697
0.00955352530763098
-0.0317583972364392
-0.0674149660573065
0.00798972479527283
0.101375513502125
-0.0593238621317639
-0.0163528769697656
0.00302358927448577
0.0558177070129026
-0.0619928695449153
0.0594395856565526
0.107767645314661
-0.0803797772097845
0.0992942892535844
-0.0729788302645329
0.0649226128710929
0.00887399706736273
0.112729422565762
0.109301881741406
-0.0160856264336618
0.0728772735337282
0.00937154813941499
0.0786450464461713
0.0814618134705016
0.0198341527116516
-0.00729049091995247
0.110205476056122
0.0623474804151594
0.109766101230641
-0.0360695239084783
-0.070713086563088
-0.051576131892209
-0.0146461244301536
-0.0120252429812163
-0.0326152717550056
-0.0469337498238885
-0.0451072709735052
-0.00124829896849987
0.0106442330076222
-0.0258659176315093
0.00956838520513678
0.151355140853882
0.0221332132014603
0.000871656950650737
0.0579158158733201
0.0885334640277999
0.172458228342438
0.0958724899536001
0.141715600081901
0.0652821851966335
0.1414574803287
0.160191270448001
0.125369482736144
0.224314127858255
0.24697008206146
0.347443505267451
0.193210067881528
0.213569519856359
0.376144583797638
0.292645262946987
0.236670291321471
0.318768572011794
0.395165721965302
0.279762857955625
0.416355604359135
0.23379054725489
0.228693802653078
0.359192388149665
0.277517843213047
0.257119066226171
0.218318403785027
0.310127680519038
0.293356607305431
0.28391702342315
0.202285935552797
0.0590731185613919
0.0588429416748271
0.083694374844434
0.124934602200547
0.108830187813444
0.0960275328439396
0.104703765661485
0.0288522700596438
0.133954298536336
0.0504394329508958
-0.0588612826552833
0.0161777164010858
0.048915949737783
-0.0625854275329598
0.0787852630703446
-0.0696128672016405
0.086710793717352
0.0887876059531567
0.0756160103331454
0.0607598268823636
0.0147380682561267
0.00129187976530384
-0.161409630131861
-0.119257356928144
-0.229951740837233
-0.057015290579209
-0.0350646484785402
-0.134259871961163
0.0354596177564445
0.236379860411516
0.356449511895157
0.525600723365007
0.780422109723597
0.963168514201009
0.980236707938749
1.14756032249927
1.15753429139692
1.0946999402385
1.03355295358379
0.765664232168099
0.714500683481115
0.441270925906191
0.277486079844708
0.076949133447676
-0.143065741673637
-0.221744620494994
-0.206037441996969
-0.272082199566291
-0.215710457891645
-0.211839197333837
-0.210365947759592
-0.199813978754076
-0.1095991446185
-0.0013787135386216
-0.145307363133483
-0.0838993469460588
-0.028506345397398
-0.068503673481578
-0.0615532485441809
-0.0847414379739624
0.00495871041276056
-0.019543148863968
-0.0504991107967423
0.0467841468320303
0.0323408785449882
0.104940703010612
0.116986740282528
0.0162253468720356
0.0962475688413798
-0.065336537037904
-0.00396551450253127
0.0580157449261486
-0.0434137298737411
0.0605755060845954
-0.0261496643361763
0.0156117509540543
0.0387681735630077
0.170794072870187
0.140252861871493
0.0360148751517494
0.20446328513801
0.180114492012539
0.0626789391537387
0.12748027094556
0.185235019280894
0.177654142761635
0.264909897802547
0.32991101272922
0.181811183490024
0.193140066122482
0.343646451862077
0.310119360913641
0.360935793231275
0.260639636672208
0.426248922143812
0.446146848141176
0.481640402158681
0.465564120394586
0.410641122814133
0.329660607820048
0.471265277494813
0.468431031962431
0.381528474976741
0.505787640420544
0.37174308426126
0.48257765908557
0.46942054840048
0.442201055965057
0.389524305883203
0.476082353771759
0.350227885248747
0.479044511101197
0.420571213942052
0.315436803484282
0.458752719950282
0.297039818480298
0.285602725460189
0.306020012180508
0.208917533427605
0.33867885178857
0.227916759236656
0.224219924812638
0.324626974996229
0.232364785316002
0.109906433123705
0.120487595095868
0.164494493596534
0.0560875795620513
0.0657478857396645
0.177147572165391
0.0905053433891974
0.115571435456052
-0.0292577844829259
0.134847408474602
0.117114912235311
-0.0158893363565827
-0.0357595006610484
-0.0319446459307659
0.0216247548773849
-0.0559342403929237
0.0137162573600717
-0.00810759279900269
-0.00413226404924102
0.0289046778693705
-0.0470170467363307
-0.0681813212007439
-0.0829487017818435
-0.0433064042949239
0.0396905127108841
-0.0517489331511629
0.0455741887587445
-0.00385186215612088
-0.106122269359076
-0.0458866041793986
-0.0583095587471542
-0.013517244409219
-0.0106312242145821
-0.131520661161502
-0.050845917572746
-0.0802513821154037
-0.149411690609751
-0.0885370238123653
-0.0747362055107968
-0.122368810023438
0.0154936014144576
-0.0100814740244167
-0.14678797327294
-0.0119931222682192
-0.0985268681928755
0.036819203711447
-0.0111494587578265
0.0143413039981517
0.0323116323819486
-0.0933672734428419
0.00530766702730906
-0.123348984144096
-0.098933387341288
0.0254513159111801
-0.140778062089121
-0.125526523835219
-0.0556135268328826
-0.129636280697069
-0.0372295214246558
-0.108449654758068
0.00638440296823738
-0.112795635628924
-0.0346350743767456
-0.0956578062660694
-0.101677718407879
-0.0855835381734369
-0.021878270579242
-0.0289400756446371
-0.0725099598430293
-0.0213445893673617
-0.0919737854356411
0.0357774368324723
-0.148158844848926
-0.0537299121799506
-0.0878310871782815
0.0288659488525611
-0.0700861338992256
-0.0461983346202831
-0.0665987936242138
-0.0388142270578407
-0.0217736483513737
-0.131947696028777
-0.125020500837063
0.0167408167956784
-0.056887491263751
-0.0480995338897237
-0.101943699656413
-0.0762084227104138
-0.0786495996253841
0.0596796718369233
-0.00569748763346979
-0.0856932280465838
0.0700610168488803
-0.0720974460774162
0.0938900803471117
0.0354565032041451
0.105863162075532
0.0112686303095367
-0.0518263338096612
-0.0373922033958772
0.0846758949784206
0.171951562160963
0.142091866205668
0.0287465896161242
0.222335897561216
0.112338926156222
0.0993412957540352
0.269008470941623
0.258178056522953
0.230492762200742
0.294743506320931
0.250005269444879
0.299454923460339
0.334811179389534
0.172555878109521
0.246146133496691
0.220280839343898
0.293641746634858
0.241537623029902
0.267091690524414
0.148779899709035
0.244109289255679
0.221806896499104
0.0931778425546862
0.152247863985648
0.109668123020208
-0.0140987403454887
-0.0291943341583022
-0.00322981413789333
0.0772100984668554
-0.00203914552209435
-0.0924250373796088
0.0557494068652779
0.0229160399546639
-0.128447248387272
-0.113296944152344
-0.132029171670481
-0.100029832306899
-0.109760434143052
-0.0546661821583909
-0.0254394023456869
-0.157108088627562
-0.100918374799265
-0.0555838886882883
-0.129482639399189
-0.21753464271239
-0.196547711694735
-0.263161399337201
-0.286347996206626
-0.189649029668344
-0.340910228686667
-0.161549539807033
-0.312018532054428
-0.251371880894652
-0.0742411383112595
0.0731045632100348
0.223039312476348
0.412893748038532
0.653866189292887
0.772862122471866
0.900315891693597
1.08596427529999
1.13822241816343
1.08317861044188
0.92359794712831
0.813378930535899
0.498972101500427
0.266004446283267
0.0790965301503515
-0.142565637876396
-0.236347011623952
-0.342766888064709
-0.423347525406335
-0.470783363438985
-0.392968584674096
-0.388108346302445
-0.351841070936323
-0.235897156461572
-0.182719014701286
-0.231113603150685
-0.0949988358691976
-0.123799714326093
-0.121574571756087
-0.156820178077521
-0.0728454683190447
-0.0712295866699911
-0.149351901307929
0.00334774532060395
-0.149090749715288
-0.0900705897912667
-0.166757310752656
-0.0479939209816044
-0.166005554971842
-0.124318343058352
0.00254506288980574
-0.0524190264882718
-0.139779725277573
0.0485270265548109
-0.118353308269035
0.036850225380529
0.0358426805530606
-0.0494339172864998
-0.0305636227738028
-0.0304382397883341
0.105031865890235
0.0616291041697544
0.05010105532218
0.134547221961404
0.0870267588874191
0.117656132762288
0.178349292097454
0.0840315840495566
0.0333227923821044
0.0486114420564993
0.125974211317143
0.15745671992461
0.212722370603507
0.168210303908879
0.294785594069759
0.237000342312284
0.232609310877897
0.266152187860636
0.396199671377733
0.380619044985228
0.316274047081112
0.357995493115927
0.406767649559736
0.312758483128971
0.335183175639702
0.456312047601401
0.402686948398554
0.439736174030312
0.457522146598008
0.277383142444347
0.439495696247681
0.43308174466484
0.269268372933244
0.259787248883704
0.231172158080027
0.20761586279337
0.336689341371108
0.343924289326488
0.326051961824902
0.268941307598877
0.247336894269316
0.193079729239521
0.219507601166554
0.134321285860466
0.185595363519144
0.0525720514615163
0.0355526610526682
0.138404002206911
0.0806866260808343
0.140618903814349
0.0169852472849135
0.0943214916026592
-0.000159910302839117
-0.112934724072839
0.0457633409231099
-0.123958983888954
-0.0150979197135171
-0.140374629772209
-0.117832598242878
-0.164208717693273
-0.0211553377553058
-0.0898564822334832
-0.019088169215755
-0.0286671552312298
-0.207321840893564
-0.0924143775669971
-0.146583488622833
-0.083874049112644
-0.0989967462251571
-0.0415926769600379
-0.110005484482921
-0.223398523338427
-0.229534878635361
-0.105826744031821
-0.226299855752592
-0.16803244660281
-0.0480342153538408
-0.141313831832133
-0.212351239683552
-0.0701360191594705
-0.156060262705507
-0.192483716871809
-0.107673395836755
-0.225210061850652
-0.0596900564329093
-0.23452937060622
-0.179656473811417
-0.0954891719969661
-0.120485054305504
-0.098356246595283
-0.15690976885758
-0.0596240530014497
-0.160654040054468
-0.0866631617417476
-0.167116195570897
-0.137968775691354
-0.0754200230260713
-0.17181661226404
-0.0757506957886815
-0.215596516902409
-0.033390525729891
-0.0351859233989417
-0.107958227260222
-0.0354174693090137
-0.216777923013768
-0.139423121194789
-0.138713786783706
-0.149740623703234
-0.214895271981855
-0.184383289076117
-0.159571725472816
-0.042207048070362
-0.0567467436988821
-0.211021097690463
-0.0352838716656472
-0.021108444812146
-0.0414300935421626
-0.113236017525554
-0.0218686623078144
-0.018709943839127
-0.102296699105534
-0.0656036168766427
-0.177021630613758
-0.111543555002822
-0.092860536652047
-0.0935391549636654
-0.208638904682879
-0.112025117096982
-0.0539333759981996
-0.0463693668454794
-0.164371573623558
-0.198733766617116
-0.0945885022707129
-0.0441735918451064
-0.179121118659135
-0.128931884468252
0.00624583901493966
-0.142325737372281
-0.165777707711284
-0.13422284969768
-0.0517166970847292
-0.102861983754979
-0.05162049349047
-0.0417966480682533
-0.0189760197298925
-0.0817078463457279
0.0870214258820801
0.113579620017871
0.0603579100351013
0.13240214872245
0.0805786628816673
0.021319364513871
0.205877531395758
0.154192883001093
0.129128714427982
0.245685824061573
0.180465512177689
0.216802055137528
0.263148388602863
0.149783698900149
0.260100011030569
0.280228959367791
0.163191955592186
0.178762765422699
0.101776489891744
0.231071325819622
0.0848812272186549
0.0341756202025504
0.135017088549898
0.0868004792897938
0.00855309360889009
-0.0540783298807308
0.0319811573831898
0.0914312853351102
0.0286629838590838
0.0519057552510105
-0.128016722430916
-0.061290026746905
-0.111309932270554
0.0129879311781231
-0.00310820240971388
-0.164004401830409
-0.119316155460488
-0.0864749599907779
-0.0882845768593315
-0.0828046843178643
-0.121007280584876
-0.0732993495941569
-0.188288635008693
-0.180252613879913
-0.0497826481668734
-0.222817925735747
-0.100789507965471
-0.133149197863461
-0.315995026452632
-0.187062339049199
-0.259277232222173
-0.225320839881336
-0.191991916579
-0.183513304101475
-0.0993073382109768
-0.0309906394730631
0.141439681637214
0.333767000071833
0.588965001375689
0.705562724840589
0.912998421618899
1.14276639731397
1.0061774590507
1.09847571937641
0.99678500743459
0.678570380544734
0.588513091578767
0.304514714850584
0.0930055108378726
-0.128792307769227
-0.26342780569054
-0.369776885155753
-0.338488785394374
-0.391052994559422
-0.440555099718317
-0.361602910199027
-0.305922667262159
-0.226738144567221
-0.15282048640433
-0.187252587595396
-0.196607221779173
-0.165227606808235
-0.0502625450540614
-0.105471198223977
-0.196020247783906
-0.0421080881746223
-0.0256328312447691
-0.0718587586773252
-0.0944753925875046
-0.12040105089602
-0.0500461264997281
-0.165899831594474
-0.155389939941616
-0.0114696416717309
-0.0289406320013985
-0.123946925111013
-0.0681131576038413
0.0453737592253772
0.058754014706899
-0.122553370056283
0.0683288360437105
-0.10250139912273
0.05940143006233
0.0313843351156802
0.0431383858701382
-0.0275198857780415
0.0549519506900801
0.116704176795934
0.128732202936877
0.0627458605724846
0.187605311945168
0.169415528535016
0.186094731663097
0.161003990925798
0.203629387948121
0.172125219784512
0.309165232571069
0.178324767530328
0.267406686567837
0.251266132416388
0.226741361577834
0.229786154484296
0.381597387463022
0.408199625131499
0.336745001288355
0.351228165625781
0.43802347340395
0.309048543935563
0.30257863868994
0.279796112502519
0.302081380466684
0.421424951388407
0.357950185105121
0.431288697365729
0.282464751222388
0.326327309721026
0.27290551348739
0.435309646545107
0.394266556534485
0.409669659459569
0.354747848859454
0.35305379681506
0.346318972256232
0.200303670487391
0.150222225504665
0.25128831834686
0.29098228122748
0.25837440997897
0.195590296054537
0.186738487722761
0.120908498558438
0.209058397018189
0.193153896223393
0.0820663142006189
0.073182462986251
0.071109102442197
0.0723502583045811
0.0796244531260614
0.107189812809785
0.0861844355892224
0.0759799072910821
0.0570789745143533
0.00742230563796066
-0.0210633591242387
-0.0993734052445299
-0.0488665978198692
-0.0506854688967836
-0.00261619949073379
-0.16451228313095
-0.0576345638028875
-0.0090252972148438
-0.0976452000031719
-0.0146535197467585
-0.0651088484649743
-0.11615925211687
-0.174740107512139
-0.108419119656564
-0.0130758683464838
-0.0395245620423098
-0.0930594777439945
-0.0426604959463071
-0.080090705920654
-0.0261644059313218
-0.0299145070935618
-0.0752681714955768
-0.137884548945206
-0.159205540521389
0.00537931315462797
-0.0928759276654852
-0.153612646546007
-0.14244480307775
0.0113534718635094
-0.144943720210381
-0.119158625615629
-0.117377878116753
-0.0195840919776809
-0.0307036381404595
-0.170533947585294
-0.013066781104202
0.0272302719172634
-0.145474174824996
-0.15759664483249
-0.146933127808823
-0.0588212626226488
-0.118947991061742
-0.0367222943539891
-0.117460911298584
-0.0373712210106881
-0.156727686679661
-0.155343576811431
-0.148115980819878
-0.061755594714076
-0.0667227575740701
-0.081883692196225
-0.0082924430425501
0.00407085837254471
0.0425315465639911
-0.0856627095420269
-0.144875568841496
-0.104653049606596
-0.0669892683314751
-0.0323909692055437
0.0287378615551905
-0.0397088992515889
-0.0446283693927952
0.02339863748833
-0.106196879930047
-0.0323004065267823
-0.0189303601280816
0.00814585609940625
-0.0453838743732593
-0.108738532814708
0.0212276675308874
-0.125334423120024
-0.0454293352261404
0.00353781204807577
-0.0800802471648901
-0.0964330206125446
-0.0577095078387687
-0.0505679609917951
-0.0223377667773598
0.0892819714859161
-0.0801955116807747
0.0103414889486761
0.0940106881133962
0.00795042926834014
0.0199649334401054
0.00445937585766969
0.160155765805836
0.136737669281425
0.0247757911626456
0.195310498139431
0.0678756419857514
0.0838748365324757
0.107094972033033
0.278540234062343
0.154066190753703
0.123934532376131
0.161594060982875
0.317504082446048
0.19805499369871
0.35395488307376
0.181123284619542
0.334472101210759
0.354486725093853
0.366727372128612
0.232932489136296
0.169614849398814
0.328136276341045
0.220862837853669
0.171425762439833
0.109769015292336
0.125215478395324
0.127264777348377
0.145932294472455
0.0711537345924411
0.0844742255344373
0.143194147071829
0.00172658934285244
-0.0273289381937053
0.0780900726718991
0.0573296594482023
0.0284194476418494
-0.0623684600786539
-0.0142507609263977
0.0427966495289486
0.0256424923747707
0.0227861059401915
0.083069327467256
-0.0266537669561274
-0.032339956900175
0.0723195677936373
-0.0965820709006005
-0.0429049232299227
-0.011989188918487
-0.0480038439109704
-0.129641299509002
-0.211936650380249
-0.123017664624159
-0.105174204826196
-0.162489262975534
-0.27557122853326
-0.171132819442066
-0.173358822874203
-0.0780350762596038
0.101081531918408
0.248728011286761
0.479937875236834
0.649999181487642
0.816392459269012
1.01544646739432
1.14487379718759
1.27133427571125
1.13931759667887
0.95752988862677
0.911068740620801
0.67145279615022
0.417781920366077
0.131346860875384
0.0318463508742698
-0.101568784961247
-0.152498782883092
-0.22756258345874
-0.204971469847486
-0.262004374783284
-0.290195079835312
-0.125637275926468
-0.139139677712753
-0.159100280085353
-0.163533510925728
-0.00547758774075691
-0.0031428154910968
0.047800577117622
-0.063090017837843
0.0823853185237462
-0.0165883131137985
0.0978072323822382
0.0652509597525572
0.0990589578230059
0.0912236009139996
-0.0403815799787149
0.0270763519001752
0.0266671918473365
0.0859557247476667
0.107539317062543
-0.0379696969053817
0.00261682406588365
0.0607907258769506
-0.0190775702575256
-0.00550978083375724
0.0982660553765588
0.0165115492228733
0.128570915983542
0.085218433382493
0.135737409508278
0.0865584386139672
0.155260601918091
0.153266500149095
0.0796732040519627
0.285068983067569
0.116805637317201
0.247910807002058
0.328827686502911
0.174914603173922
0.335947444519821
0.366377770891769
0.39020867849618
0.397796109510712
0.397229302805402
0.332803147564381
0.417240870681795
0.465766011487164
0.41951619331582
0.506404051108369
0.375301533765782
0.398083526477197
0.362060820289516
0.516816907165662
0.433251195687554
0.528935730621609
0.402126035492403
0.566392961575094
0.49287467529092
0.542696018246732
0.426163558165508
0.511661925343747
0.379817233168561
0.406856911317265
0.489899067511039
0.481994592599581
0.493566681034768
0.30062999910673
0.283107269951745
0.430480042636312
0.327399312621157
0.340711847167905
0.293969972333402
0.218247168740401
0.241381400698119
0.179749469008779
0.294132520589591
0.238519274910773
0.265878888081329
0.128284052737683
0.065097789749413
0.193048452183088
0.133357323396251
0.170121212495571
0.0871003384521986
0.0474948776137683
0.0613502781831104
0.00805610734789586
0.0357667488154089
-0.0240624309473953
0.0204845800755225
-0.0513605592572221
-0.0608426164110302
0.0106076124653845
0.0480847520260903
0.0202401638589997
-0.0369061673307937
0.00872446927729681
-0.0486772278093783
-0.0235010067375912
0.0386401035130104
-0.00655698939877086
-0.0871271583714603
-0.0203644202415265
-0.0769954647930691
0.0357938728590581
0.0671446995522093
0.0911600310830726
-0.022135210190251
0.0653989953467153
-0.0153454704694961
-0.0916818676400754
0.0402171801888145
-0.023028906622816
-0.0656749178683829
0.022998792384479
0.0994800206246047
0.0989673348037364
-0.0419820703237664
0.0274617161153477
0.0876653405085134
0.0671020909286069
0.0616215789170638
0.0568386403605031
-0.0726926325915037
0.0670849630744993
-0.0742863508818733
0.0897691879224514
0.0622767521921876
0.00789029119175518
0.0792729971713062
0.0138863119551416
-0.0811653436547556
-0.049272979785011
-0.0250818362180791
0.0628828155378301
0.102210911844003
0.0204606018739944
-0.0659951656405259
0.0133950284789257
-0.0388111755540052
0.107781067617038
-0.0106591908055345
-0.0396194107636253
0.0949750236845125
0.0326917382598749
0.110579666099712
0.0498943101787183
-0.0255135828397674
0.034636633532382
-0.00982218529591669
-0.0124724225285538
-0.0327932578606338
0.0577194414410125
0.0296554809814381
0.114807102270482
0.0588172162583358
-0.00278425438201365
0.0664387706344833
0.0825566115933248
0.0914047788842863
0.0125350346760423
-0.0352990623232296
0.00834075951868025
-0.0373047377473611
-0.00503065327280987
0.0571237682987041
0.0595351003475617
0.119335193972967
-0.0191333587412288
0.084923868463424
0.0632160596419877
0.0301604345901519
0.0240568313783918
0.159173990122128
0.0905421819807311
0.110632724873981
0.184746038535062
0.21579214237879
0.178196725241264
0.193818014111866
0.25886586999575
0.237890083722445
0.33182935584035
0.215787748563757
0.253366752204658
0.270609744495591
0.376675056091362
0.317038176901641
0.402636913215111
0.250775916776849
0.311506544860931
0.231549030209033
0.203570140829166
0.366929625086354
0.297513670114125
0.305496148359509
0.301488991992853
0.170163940656859
0.129199000402909
0.262470089509438
0.0894553941047366
0.0740570558811458
0.188792356738388
0.085975800740166
0.0553219273936992
-0.00556490427949519
0.166787944498569
0.109643927365418
0.0914359231465224
-0.0500058841164533
0.0914809398579884
-0.015065569030005
0.0285855261572031
0.0372253739474664
0.018270612445989
0.0120226353078528
0.0467252726544445
-0.0726502899879165
-0.0500048117087983
0.0418710206518386
0.0358776687438478
0.0107895123754655
-0.0196244268736516
-0.126376479347092
-0.114735959811714
-0.104441187914664
-0.205557349934768
-0.121038092717071
-0.10081172142247
-0.026608251170185
0.060843942812556
0.230601812513401
0.446920870270217
0.720858427730368
0.899319685680849
1.10184710712666
1.26169767839858
1.22272412839498
1.06691676075345
1.06224003926811
0.796103290003756
0.591492750645043
0.507927798794075
0.302783074575089
0.101891943047896
-0.140570153604049
-0.275950029501727
-0.319721889321079
-0.32851945943126
-0.282520303728141
-0.267031700877024
-0.257945941767656
-0.205082954793416
-0.138107068770734
-0.173506792797847
-0.019643361424053
-0.0785777866008857
0.00490329918521165
0.0575533278192304
0.0140470495895982
0.0860706367487995
0.0129994442672914
-0.0175932681252345
-0.0855227564121315
-0.0194335431337544
0.0412412203977765
0.0567480453348703
0.0919160201958518
-0.0414182928311097
0.0326842627075097
0.124135005112136
0.0852379051366541
0.0190153848746613
0.0372496260955562
-0.0366842810019599
0.130212199113354
0.0667187687350428
0.0265715665698361
0.149931258529894
0.127366247282972
0.173586844413821
0.133289977628987
0.0771809301146619
0.18749031685825
0.203559709847991
0.119441902735364
0.306291472227268
0.132417102029743
0.342085643117427
0.321154946983631
0.247017087913138
0.296132032419353
0.35826600782181
0.262648535572591
0.400066782808289
0.305062068175138
0.42694393625889
0.426756128317769
0.403666853289006
0.358398465776276
0.404772123436768
0.394554938755858
0.495015717145837
0.397303877528629
0.487456710648757
0.552954915452515
0.54572318884193
0.508498246054739
0.42768563201798
0.353399850380442
0.406848520305584
0.368211640500427
0.465205811556076
0.313002263234378
0.479003945125424
0.343800856752494
0.274041638980509
0.306714737494536
0.306634374588521
0.315078431207827
0.189662426319405
0.257309419196327
0.190682685940421
0.130363673828492
0.179713250822801
0.267295697762953
0.154238486220159
0.135376991560201
0.0792099617128376
0.0817192005723955
0.0743500946707486
0.140692484487819
0.0264144289359816
0.0253536955038681
0.127667676898289
-0.041729567003687
-0.016370158946165
0.116581026160924
0.00535215418174243
-0.0514062712155385
0.015107732520538
-0.0348251561262946
-0.111185373078422
-0.0448699534220054
0.0023414348119993
-0.0702103314834592
0.00433554942423355
0.0429385776491644
0.0560733417719289
-0.0953563590519712
0.0133226765222413
0.0245200593915526
-0.101300808784371
-0.130286846494858
0.0277778015641216
-0.0721405426195216
0.0183009615246387
0.0387123103959087
0.0240674971524451
-0.101739138751525
-0.0427935114469699
-0.0458033222933358
0.00850534249130146
-0.0799014495893702
-0.113289452212276
0.0278258104498431
-0.0813244150069074
-0.132516414734746
-0.00927173874534867
-0.0395918197542187
0.0307653761130537
0.00513613164204774
-0.0424415081462517
0.0247966896242554
-0.105651659619961
-0.0190595069660507
-0.00184443778643671
-0.0148694935098937
0.0337887401686172
-0.117013038837593
-0.056374786486687
-0.00411894954905574
-0.0555678038109551
-0.101111268211012
0.0296995155130717
-0.0993225375179076
-0.1391353659964
0.0307442414717622
-0.0586392052650109
-0.077635337048145
-0.130581993087752
-0.104315756916917
-0.0414807151360206
0.00207475510480402
-0.0111530647608118
-0.0485160984294126
-0.0839973247675344
-0.00121043192326051
0.0156942082706665
-0.13371502235279
-0.102261603431108
-0.071008399714354
-0.0968164313537494
-0.118004604824572
-0.119345043855969
-0.0230667281539075
-0.0483272280147149
-0.120139630380481
-0.0950541854266314
-0.121804202733337
-0.0817482106566144
-0.0973025323322117
-0.0652111272501578
-0.0871916364681087
0.0383016298870402
-0.0302047929042447
0.049715867450662
-0.0919983297549966
0.0110855921015348
-0.0996266036676939
0.01215045232051
-0.0658174200963221
-0.00839296317567067
0.139952728057066
0.094742956766995
0.141178450956557
0.0220527811713724
0.0798789791192126
0.182809040153146
0.0464677623850964
0.130967987145961
0.0947256019137533
0.106219329576707
0.297536825611818
0.195050368391041
0.281150238751079
0.162144323023973
0.246945263164029
0.286919385540967
0.222654336279635
0.263540891901204
0.183940417302147
0.189187835871967
0.27966432318224
0.204031593268466
0.208930478629994
0.249488792863456
0.109466359588882
0.0687119164644404
0.16317483300161
-0.0109640537259963
0.147432448390406
0.135986607797988
0.00192432985064065
-0.0510710516682015
0.0190957694196537
-0.0074063565056034
-0.120862087255743
-0.102171112665505
-0.0859838158521412
-0.000929028743485091
-0.0834514920387105
0.0198319963263695
-0.0408105992963468
-0.100107354161833
-0.140694612721218
0.00952752845825644
-0.110494197102932
-0.0771748957765658
-0.101640892531889
-0.0520443361607673
-0.066114665228964
-0.119438239561151
-0.242913787550225
-0.205928114718415
-0.145142438933591
-0.243345458062983
-0.283395144826703
-0.186122791208402
-0.0247407701109974
0.0490857620004668
0.177349968813404
0.382070425807333
0.667425468830627
0.707408584704578
0.961965553144165
1.05409282839165
1.13076159619612
1.09962163254296
0.940619318143669
0.6901462653303
0.499284936756302
0.334918053998286
0.0352262508559681
-0.0650472443183113
-0.147533890826318
-0.246351571233905
-0.359595533284343
-0.45250838780782
-0.283399884552887
-0.416587440072828
-0.335351061707046
-0.286346749055546
-0.116573542945935
-0.157206007287043
-0.0985319611455315
-0.176695694712847
-0.176470295572225
-0.122591236375539
-0.15830269910531
-0.0480202129795644
-0.186209896678058
-0.102093547347808
-0.0628652993200532
-0.047818510676703
-0.0711706871446166
-0.112490882327893
-0.0787541473833624
-0.0121429930676664
-0.04468598688905
-0.0238040091841572
-0.133170016474277
-0.108524467775575
-0.110082283834341
-0.0877668871662663
-0.0829085144847195
-0.05916539183838
-0.103728914773191
-0.0470512850605399
0.0839495466041996
-0.0572326300360483
0.0147629615240844
0.0322543187614022
0.148386651020652
0.0301262214098366
0.17360884395276
0.150617255202562
0.208449784030561
0.222694537505315
0.179058550438656
0.227205399852291
0.108798189257695
0.317933002808031
0.247857269200586
0.285067272836199
0.345178014863146
0.241281124244934
0.292544767455401
0.377179156026871
0.273697389542778
0.339274126590551
0.303442412490894
0.330820230846269
0.346034885419905
0.319861727364546
0.347374635119128
0.33079281572972
0.399661823664587
0.351032841514155
0.337541263664008
0.328922570464158
0.383638924917468
0.38522494126907
0.227389842152482
0.259043776056132
0.27187292898707
0.254378619755183
0.285800750337922
0.253112840576383
0.187407281931401
0.142410507701218
0.261224116450766
0.244521222576457
0.108647629208814
0.169295856429647
0.0997583167929432
0.0260260770967237
0.0204582322188091
0.102626559335218
0.0800856248873636
0.0203255307229072
0.0658016855909962
0.0841478269031122
0.026482658899682
0.000199416289419885
-0.113151914098415
-0.0891127170196996
-0.110241835799663
-0.0595947422040538
-0.0761210124724612
-0.0982601561888652
-0.199126495359646
-0.0514396170155174
-0.0480004127954603
-0.140641842759333
-0.176595275928142
-0.115785483860233
-0.210457710546182
-0.130830186572199
-0.135287862402485
-0.153940966083021
-0.129052130333247
-0.166825774533568
-0.0380009754541809
-0.0825445025116674
-0.0599447207824242
-0.185529570021384
-0.184746724315472
-0.0719354123965486
-0.0828568115881949
-0.0620674613238133
-0.0656616089579756
-0.166848807902387
-0.0930257990927038
-0.188168780659274
-0.136875690551452
-0.217129487296384
-0.0889534425240417
-0.0785484016867078
-0.212308659839541
-0.186796955665943
-0.191175004389357
-0.0354354696081836
-0.0496923601950029
-0.0739158405579104
-0.136366182411132
-0.0625956826779915
-0.146984111054133
-0.13006043121426
-0.107960806861394
-0.206768548072417
-0.181035949168395
-0.0732556701201669
-0.0851841434412319
-0.163336175857762
-0.0794856698438463
-0.14847714983619
-0.0358566389683687
-0.0399265260324125
-0.0568510286926866
-0.105347230649084
-0.0584950609239246
-0.131449219458155
-0.180461712184895
-0.120184657242535
-0.216203628486098
-0.125033745958118
-0.128088866673714
-0.105664689453719
-0.0940396770368882
-0.0315239842171876
-0.165483682184521
-0.0370390383326495
-0.0749696954981229
-0.1279762522628
-0.0710505144164383
-0.0381592263716385
-0.0617761848894436
-0.0861257354903099
-0.141721379986871
-0.0253800741879779
-0.122628800989483
-0.05652548660051
-0.00672477240552502
-0.16247781950752
-0.145820878810827
0.00294820518040029
-0.0178838208318893
-0.0783852515632987
-0.110424432773428
-0.0704316926388686
-0.0606209461962736
-0.0470704886392961
0.0500071713302688
-0.0445879403798826
0.116879246320929
0.0154552053859597
0.0118643853024326
0.0724755213765269
0.16168218707992
0.0378801003972248
0.0910434889987702
0.184911442429403
0.0584798642980373
0.0923923432985037
0.192065381446409
0.188162325419424
0.188256687539325
0.128234556741887
0.204159561088672
0.0984125824525953
0.169163087597799
0.0704380088831006
0.0995660034485977
0.0539800473193233
0.05160255996527
0.0895791378561126
0.0104666763226507
0.00340296297341514
0.140423485043062
-0.0574838238115564
0.109773478169467
0.00559885001603847
0.0260292516504861
-0.0530344053679003
-0.13367506302574
-0.114124381483144
-0.0726770385196186
-0.0336426323616355
-0.119638407407714
-0.0501714614400735
-0.0129286204836878
-0.00865600286192682
-0.155434022046888
-0.0690115790964963
-0.155180396573791
-0.0120171011758059
-0.174180817575885
-0.143303732327016
-0.0794193777355294
-0.128762678777224
-0.121215430999336
-0.303793976199306
-0.249824135628172
-0.316185963185496
-0.281611385841871
-0.279081384179979
-0.211087000344046
-0.091193087133651
-0.0365873245434371
0.112659626487072
0.286602099618428
0.370519968787649
0.537231500234975
0.854937678207007
0.849144415667818
1.05423618373764
1.05237343979464
0.994870994071123
0.997055778489144
0.777362471293647
0.539644595704676
0.323723947488077
0.0837230833870642
-0.137189108756114
-0.275877631790515
-0.254496804764694
-0.322280839520724
-0.472993245645692
-0.396620176195765
-0.314571157190753
-0.348615883343639
-0.272071355567426
-0.178774360974816
-0.218815874066583
-0.208068937479114
-0.0390076528209069
-0.0844623317817697
-0.0501279179804193
-0.190884353237337
-0.121958195650099
-0.142439173318854
-0.0534432424000797
-0.0600689477183713
-0.155265859286951
0.00421209458513414
-0.102081675127617
-0.0720094111873072
0.0097061856281706
-0.00904777448108354
-0.0114321983245135
0.01683588701865
-0.000156709251695218
-0.0512560641732573
-0.0924488069226439
-0.00240608544228706
0.0318774700460746
-0.0275079510366759
0.0404882730690909
0.0521281732815571
0.062277685594528
0.115930552544024
0.0570210381730118
0.0265996572355371
0.159319202734451
0.196137000004973
0.210037627542683
0.150248141112995
0.0662611526890757
0.136509964927622
0.24274251861088
0.19225118800079
0.235001263931222
0.292193088211308
0.293254834309973
0.292448045443679
0.333255173122612
0.299056684968498
0.228171637250267
0.423774795612087
0.446794336039886
0.394368120408076
0.397776790366832
0.385246099184237
0.345895987309262
0.465353962371043
0.318435791842996
0.33652916279801
0.279971956853707
0.313617752958332
0.295999210773791
0.335563598157658
0.374168224312787
0.28859532606574
0.329745602197334
0.223818481241714
0.200453960671643
0.186970247163063
0.311489975406541
0.3061606298068
0.292222075394045
0.128184171874015
0.135931816726622
0.0764356035698651
0.0842435518527002
0.0548206350660739
0.109070175027998
0.194070056803206
0.000608883583033099
0.10473839587126
0.0800790379625734
-0.0062970715882161
0.0226214461545518
-0.00100438178258637
0.00159442647674763
-0.0844443294104485
-0.0391211310272904
-0.071424313858239
-0.0967760983661272
0.0232569579916343
0.0133090332700748
-0.00462215256949808
-0.0481450893972986
-0.0427274308692772
0.00526337769684042
-0.127179268916302
-0.149121849860837
-0.0575283137473284
-0.114032236850074
-0.0471787742096651
0.00286429959233257
-0.0463394099570074
-0.169457643048114
-0.0672564088375152
-0.0665743917730109
-0.105660699251365
-0.0293342644285531
-0.0979090076994118
-0.123046282591551
-0.0266691649324613
-0.140120330736023
-0.0443972009434407
-0.166473111385767
-0.0368809615665688
-0.0439925558498688
-0.0243266759291654
-0.0521164552238305
-0.0151223388569769
-0.131793947713957
-0.10507250130591
-0.00135112114213816
-0.126361891437665
0.00811465831242643
0.00465678308575893
-0.021068580240842
-0.0776551079809869
0.00186857833232645
-0.128836352861999
0.0169657695245081
-0.0164170146597943
0.0261165396675158
-0.0635656803741153
-0.0588429929411339
-0.0213046696964607
-0.150328238470352
-0.153356795965362
0.01917066434668
-0.131571429961556
0.0229354556889501
-0.0219521522533169
-0.141132817397395
-0.0995236697065476
-0.0787590146570737
-0.0997627952358105
-0.129537729531557
0.0297380564877029
-0.0108185146535816
-0.0113856934391664
-0.0751701089533571
0.0355990078135408
-0.00497089289455586
0.0357944547838929
-0.0426993557117436
0.0361003401092665
0.0241110376305999
-0.029701049436197
-0.0374477148530176
-0.022228300315085
-0.072871958441328
0.0646826128381616
-0.0851629426852564
0.0577944605664937
-0.104910370975664
-0.0139166832409284
-0.0238688063257765
0.0699223521436519
-0.0602534755452384
0.0666650586131013
-0.0677978181234205
0.0290953724638216
0.0778026452913581
0.122433884756877
0.0219852196693141
0.124985520232095
0.0899601433682831
0.0593356620727254
0.197735211439389
0.0672894341037745
0.11575768032325
0.256773328580448
0.255609674452551
0.275718520218321
0.13448040155633
0.209080810536346
0.165242960383302
0.163797380098965
0.349865095647166
0.286875191007976
0.276892395855526
0.318795334336073
0.245973995953223
0.193431126734834
0.17630719952733
0.306646213318279
0.329176837090767
0.230556730178958
0.10349054187387
0.118653190415737
0.187620085887036
0.242191845707778
0.052389522300711
0.121943561616053
0.169665930124718
0.0134761281486393
0.0272719934633126
-0.0411368449791211
-0.018202131777395
0.0481964737910257
0.00911305892897599
0.0175709324876583
-0.0303969065127978
-0.0292847349768896
0.0192444350363391
-0.0441526641631923
0.0407592537791467
0.0778084699061078
-0.0664710901538701
0.0186428081573996
-0.124985280693778
-0.111276040038851
-0.0712798548985309
-0.166560648728138
-0.0209454672736644
-0.2237804783013
-0.163130691813062
-0.111874222524238
-0.0992783616936783
-0.0616316597473494
-0.158827685561673
0.0720329035445105
0.207706114827066
0.207182842250495
0.385624023790476
0.604855918637837
0.780483583308453
1.04860317700969
1.08329827561622
1.23559038272648
1.19684485817736
0.912966472424685
0.817968352261034
0.67550757891208
0.410607277097181
0.275477918540479
0.0531769970025073
-0.0912796383048577
-0.235018961736899
-0.255046628169654
-0.238524881976023
-0.305320546566394
-0.250319388548564
-0.30682317027186
-0.0922676298486131
-0.196174780011098
-0.0270550236479314
0.0422879887420048
0.0401626593486865
-0.0892611108763763
-0.0785438823048369
-0.105720813753501
0.03147315938312
-0.0583203473446913
0.0329942332149826
-0.0347513161777401
0.0559931728491918
0.00426978522799908
0.0414517329647297
0.111526643254298
-0.0475908464976281
0.0106081534232265
0.0297591674022147
0.0633649986840025
-0.00121011684339526
0.0103014570111403
0.107788616115195
0.0624447328029587
0.0254267178227814
0.181399373133371
0.170609436735321
0.0727982475632744
0.199098668320814
0.0656665161814907
0.152824563249051
0.16144988083016
0.162457306352823
0.17871852248605
0.277240256231443
0.19153775845134
0.347570314223953
0.335202961038567
0.249384031040178
0.386739456722155
0.358862413513711
0.34893366032897
0.310143114619129
0.35626007840223
0.320948442115366
0.383232311420208
0.470407297150467
0.435103845543044
0.491777982730025
0.47899312168056
0.481761713572976
0.401770877371696
0.44342541190246
0.565431384580475
0.574232377815458
0.455158225913927
0.514893821688818
0.40699566640744
0.543091229786737
0.401434130905837
0.511682985314092
0.463506134762339
0.386852014809176
0.476748451624821
0.433222364834334
0.402385209767062
0.353500220850691
0.31282740847473
0.237455434397528
0.240416508921983
0.207200086728013
0.187856047018521
0.170622353490286
0.264172433682786
0.107384605798421
0.189047630984417
0.243386794819744
0.193186655200734
0.112427562335677
0.0518976705899824
0.142041364498123
0.0536298698138573
0.0469592461499271
0.111605729859326
-0.0315620193431905
0.0288199044121556
0.126434266052263
0.130845200841915
0.133459460633478
0.0273369830247849
0.0426886131279725
0.0136282952941758
-0.048233721187499
0.00341575271170293
0.0278052457750728
-0.0287561673405901
-0.0718077425625891
0.0931681056237615
0.0390825221247908
0.0749056645258823
0.0810046305408723
-0.0533924346095644
-0.0912925946849795
-0.0173055694316993
-0.0142536509398549
0.0723966845546044
0.0373650689194673
0.035836579639975
-0.0324895846090759
-0.0601829638236888
0.0756552512963272
-0.0480984555722274
-0.0249087442743013
0.0929294754710139
0.0649811894752226
0.0171780137341584
0.101215912501307
-0.045185530347721
0.0470862670260401
-0.045243896320557
-0.0829648313894262
-0.0762292457825789
0.101460244835
0.0341841559137005
0.0541498221550133
0.0414599598589645
-0.00704033881023257
0.0816085825629702
0.0886241147317471
-0.0154652173470072
-0.0690887618098763
0.0897172003856486
-0.00737116690749765
-0.0833282667728013
0.00128895797231462
-0.0797122242897945
-0.0476681859300881
0.0141548294320435
0.026233739620905
-0.0275345752984238
0.0413615671068004
-0.070404155067126
-0.00679922360860798
-0.066568362126841
-0.0232255959184861
-0.0304115473044883
-0.022579174982545
0.0916368587644759
0.0355776692210904
0.0960412931631496
0.0160433784296345
0.066961202471066
-0.0595486136651656
0.0419917120050079
-0.0270896589734784
-0.0410939899498121
-0.0222128991144969
0.0911248617332207
0.000812453115000888
0.0137727227796838
0.0209295385882374
0.075301431058069
-0.0234953153114878
0.0194186523949305
0.0325226108882727
0.0168825128113829
0.0170334098076583
0.126873054562036
0.109577533907749
0.191299936102775
0.183543039223977
0.188238172876633
0.0842941798730849
0.118667185925926
0.114231778122802
0.11993228335257
0.137984543294966
0.188570664974559
0.202810975299799
0.349886505636596
0.206428421365889
0.223705076607348
0.282594463910824
0.244341670133449
0.255200592977048
0.36097063416613
0.363527361855751
0.252585390098715
0.392787712479251
0.248182537582953
0.301367240925744
0.306623782212207
0.203850285751706
0.316834901922235
0.168253983845255
0.143244026841181
0.233729077902723
0.216860542829991
0.105360511792502
0.183122532519803
0.136382461106322
0.075993741785227
0.191375688766668
0.0514937362268456
-0.0152219350454097
0.129696628981894
0.0820917958198588
-0.0240315642054244
0.11238803658522
-0.038357373491159
-0.00366156640435481
0.119520346451912
-0.0502715506931224
0.0220664971756446
0.098922293580824
-0.055209649805473
0.093383593119121
-0.0781394686618439
0.0396632892303508
-0.0625638014144438
-0.118694029359391
-0.113693850663612
-0.140544465842358
-0.192469814962475
-0.223236445649712
-0.213819528237035
-0.165865284489679
0.0404180006239811
0.224294184635388
0.312739333338213
0.593432324079494
0.671109098944483
0.928068340816866
0.987889758308391
1.07724376410471
1.25230710753202
1.14883932288618
0.947678667086863
0.825219537117968
0.664931396498435
0.37760496978402
0.122446481541128
0.0926938387487458
-0.208067376722692
-0.287213073000958
-0.297991681905719
-0.345366056423131
-0.262144886517438
-0.243671840039401
-0.112178465126968
-0.194836607983645
-0.02078412310698
-0.123938515179877
-0.0173690681553986
-0.0706618526445938
-0.0765613775902402
-0.0814378397527405
-0.0194736900579013
0.0278536860063536
-0.0129026301728544
-0.0489129922896755
0.0628588641102199
0.0858778461013263
-0.0210195901156844
-0.013211836031562
-0.0752450156681181
0.0891453843861404
-0.0487092687597382
0.00306256889936642
0.13260994159976
0.0119352726909567
0.0908209093627989
-0.0357535097552687
-0.00230369114448518
0.125412692355997
0.0729473712849274
0.0260927078667323
0.11810878886502
0.029901366204699
0.222493751410162
0.213188104668875
0.214533826430602
0.0823073581730438
0.24139756067084
0.255591331296364
0.155574034049679
0.175762428683952
0.276242617830242
0.338611804600674
0.284593006042381
0.246685079533406
0.383178027166971
0.334040657793343
0.361095244438191
0.310841018821025
0.46658564891593
0.313520791648693
0.321407779684062
0.470578446218191
0.438039454041028
0.524239143137386
0.447224692565493
0.391885317038702
0.514391562134126
0.484088300189421
0.506722775996871
0.424975427949458
0.537475307090072
0.47327414037662
0.464889774039061
0.417552320798661
0.428089525717014
0.45417680633355
0.301712092670448
0.267141249438295
0.386472038401429
0.290782001213628
0.260546883541867
0.364360950341316
0.336642099576363
0.264259169586202
0.249562839087718
0.189321458367387
0.201940668299198
0.217257962158366
0.108237501487098
0.228910081789568
0.0940912864891578
0.0492061011906472
0.130087463920639
0.0851127941626851
0.0367695989770743
-0.0264357180035857
0.015166984210454
0.018668064118824
0.028052994362262
-0.0656949551873441
0.0967413762418356
-0.0869770095840247
0.0258272477061491
0.0319383860679107
-0.0177437331742083
-0.0987038809761275
0.0298799433069932
0.0249163981001117
0.0415203557974616
-0.0155674356219415
-0.0399795350648255
0.0309186949406356
-0.0275754220621994
-0.108249973253288
-0.151600979306888
-0.0695306721277171
-0.128882978666633
-0.141576975748692
0.00373337047074757
-0.0990431984516186
-0.089747173829809
-0.0265774109021161
0.0398871415017805
-0.0226155204858587
-0.0151823832310055
-0.137821717227122
-0.128969369756756
0.010006814850796
0.019185847815524
0.0344508000005165
-0.15379612348097
-0.0110189354415094
-0.0901438215272703
-0.102078722191406
-0.0241930939367849
-0.0498326817027753
-0.14724517239493
-0.0698268417761291
-0.0681941511847711
-0.124760732569641
-0.00851597377587401
-0.0548852805848551
-0.0601747188412177
-0.0216855923608427
-0.00753819625250361
-0.0367468536626101
-0.0581848916589352
-0.0807246189982913
-0.0429090448037699
-0.0332463627082645
-0.0971382075887401
-0.076203705792245
0.0293682989234083
0.013063408332156
-0.149204309378951
0.0296368852642558
-0.0383267204868294
0.037330896155007
0.00959223060309028
-0.0609221957172945
-0.065065825716491
-0.0703652088244213
-0.00102509677041581
0.0313716913901224
-0.013240862166382
0.0396656067796199
-0.0668745148198418
-0.137164503338358
0.0168841986753409
0.0351462797607113
-0.0400568065785825
-0.137999543812881
-0.0867262438307342
0.0546749064861558
0.0130528602731284
0.0231469567774439
-0.0299748186247191
-0.070575936216573
-0.0950323682129018
-0.0770086073253489
0.0245388491344091
-0.091084468012555
-0.0763943523966151
-0.0674512540372014
0.0663898091772471
-0.0364637821457733
0.052400615794791
0.0840964955603786
0.125176222306606
0.069943920794917
0.13129532752529
0.206018205434051
0.152846196084708
0.237510460975849
0.1569797741964
0.23990136649475
0.222288664880383
0.183847225400043
0.212906528647978
0.281048098189493
0.151015589606396
0.232757238469321
0.247790490730926
0.268022179581204
0.154572963935046
0.117716334390794
0.0766144326450396
0.0736718931521209
0.134939793447064
0.13860143486289
0.094482463757018
0.145973916434995
0.107350850688336
-0.0329297017498435
0.0533742622704837
0.102887343982343
0.0192561927492416
0.011900015027027
0.0451263023296044
-0.0992823806982371
-0.0381729609768017
-0.0464816883839574
-0.123552080079866
-0.081856629329154
-0.0607743151257677
0.0274973889371269
-0.0295662183795726
0.00137303832182904
-0.0463512673469817
0.00785284221584399
-0.0870553100787132
-0.0723091923981252
-0.161549310736981
-0.0973871992595779
-0.305065329001704
-0.16816261169501
-0.28079082091399
-0.26498504601383
-0.30147543010685
-0.127374299935449
-0.160096923451138
0.0690890052975718
0.297458156592587
0.372956590196238
0.511816001179928
0.790313141632011
1.0463339443392
1.01090117582069
1.18787696798965
1.12649811821407
0.858079412916128
0.74898440936879
0.5666081929759
0.228487651923723
0.146884428929867
-0.111334014577237
-0.303521867237551
-0.204090286395146
-0.43338587423809
-0.426846923565532
-0.304400341864596
-0.435115440509241
-0.203357464456787
-0.291845599740975
-0.262980314365283
-0.231344578228519
-0.17837667771411
-0.170759857459003
-0.0879388506888673
-0.0979632639590947
-0.116754718489386
-0.0118998795495576
-0.0334731694041648
-0.172083349460667
-0.0162916413043195
-0.0330173578861841
-0.139195703792404
-0.11288478391185
-0.17043838298683
-0.109205509249793
-0.0108584522369565
-0.00818976675692597
0.000722226901183898
-0.138244091932443
-0.133674644584727
0.0470638600121516
-0.10775129639788
-0.013042981424198
-0.0529925928066147
0.0759763077992234
0.0331127257580613
-0.0102346563807847
0.0355934576914398
0.0501072448899308
0.0378104578531171
0.00619657072518805
0.164161899808033
0.206428822646807
0.0805033929335611
0.18984249848742
0.142961958771653
0.092092405071537
0.23540882400307
0.201397293313421
0.227841357914037
0.265494395022386
0.239681722318684
0.205255319038307
0.236661295563206
0.361303712122671
0.374877192191242
0.374823353642961
0.307772112769609
0.364558447310789
0.320781836041027
0.270870979782524
0.412233019298755
0.446082934912314
0.334975486502471
0.426239522670444
0.444716458284326
0.321631888277755
0.288828784522598
0.317949305418608
0.345246896876201
0.304524699217644
0.193798449865615
0.314567520596138
0.293407667992656
0.143465793443552
0.149531251291002
0.142578404501921
0.23701879116832
0.237300376731066
0.0913944292124174
0.0862892606012306
0.113886314098062
0.0900581958985225
0.0585542042305272
-0.0330435764241926
0.043098995263949
0.0700572319136822
-0.0286068873654239
-0.0222122206525634
-0.0323603077384271
-0.122089237019234
0.0276625779848407
-0.0780165727858713
-0.0876195286561232
7.76660037178634e-06
0.00154767539872978
-0.129386195628659
-0.0799398091104352
-0.157440895746394
-0.0943231063594271
-0.0947442658301022
-0.195813277104011
-0.216405594152213
-0.160131241406865
-0.140644305456782
-0.157868993373094
-0.141472549951042
-0.128652146303843
-0.0423375967119514
-0.115304401938713
-0.120707469516515
-0.073057589336153
-0.0917327611751523
-0.157318432385525
-0.234742628228651
-0.123670429456219
-0.201485164981167
-0.0676586394268351
-0.0485100887221857
-0.122148225512609
-0.106524894498175
-0.2181709755982
-0.145387125285333
-0.0405136576347295
-0.182152014181011
-0.0752072979188674
-0.165172577518722
-0.118583510889316
-0.0328048140063226
-0.0369029931045803
-0.0474364387219696
-0.0703280884965783
-0.187740605446947
-0.120182201883077
-0.172004069310013
-0.136814093261689
-0.125296358881387
-0.0855232116745644
-0.128354792659414
-0.0730791307405805
-0.208658098381766
-0.0824983127307728
-0.0895325340889894
-0.032073236956371
-0.0556247150790102
-0.0524902183593822
-0.15090140517408
-0.171437042169112
-0.0548285982474677
-0.0283305033518693
-0.148114841309596
-0.172567327822915
-0.213736972865432
-0.189917145089276
-0.196382310762206
-0.0733259312028773
-0.183996869469137
-0.141224468606374
-0.0887822122356705
-0.0241988514571121
-0.156481492215259
-0.0856111173468598
-0.069018501789591
-0.153036432349696
-0.198181090765143
-0.0381847706504119
-0.054716826571739
-0.173931657335991
-0.0414954857490646
-0.166388941730218
-0.139154223080481
-0.127741585361636
-0.137380179585994
-0.0932166154392145
-0.112865465384339
-0.130031922529101
-0.0473020783296666
0.0181760076041107
0.0440427640294513
0.0361374290563242
-0.0481778783368911
-0.0758134286937472
-0.0333735431275958
0.0541239170963591
-0.0057685501205042
0.032147913161434
0.091020488687178
0.223833506110459
0.158140353920914
0.249687378637168
0.0738315966655261
0.254043474394038
0.128074187759992
0.193696180656361
0.172079859557361
0.204294540456364
0.214546943916865
0.250016160898714
0.227221824032234
0.0964097174471694
0.0710071365612982
0.214424614270251
0.149239919884664
0.163612075576963
0.0774340031444498
-0.0242460487603372
0.122155108120557
-0.0756311518877937
0.0736111512947526
-0.00643760105232567
0.053309142447416
-0.00975353788357665
0.00413507172901112
-0.0577849380097586
-0.0981099070552514
-0.0253814680311945
-0.0696995910704917
-0.0856678058671281
-0.164817335869455
-0.0113242130949921
-0.175779400201663
-0.179138580721227
-0.0785259020998295
-0.205399122317417
-0.166540144759385
-0.046086069793065
-0.215852682344267
-0.254226804280998
-0.167481267159663
-0.168854246066275
-0.194806323675027
-0.333079505755493
-0.235921454587327
-0.299393369705601
-0.208397480838062
-0.0083554166492532
-0.0681036587892175
0.174029275903533
0.446187608723605
0.491380934971149
0.838247363354644
0.935346232139359
0.988127865658658
0.993388513717795
0.951227116906075
0.985082014424909
0.810506577178983
0.445292006391097
0.310194462826642
-0.00511224297067545
-0.0408753849349518
-0.153247093643543
-0.401437256010286
-0.468235798121576
-0.490226557543147
-0.362614336796371
-0.344823787516262
-0.347471361676573
-0.246941567930325
-0.275220202348406
-0.122503484547673
-0.0604398442481274
-0.209761677008709
-0.0264018688540484
-0.0888761656833881
-0.160504978589335
-0.0460665255365579
-0.118251588271087
-0.135740577971859
0.00031721531549353
-0.17037078024733
-0.163845109530164
-0.162173528360222
-0.013409430895267
-0.0906795296948428
-0.0825225169179369
-0.153370220613129
-0.0350644942162867
0.0330382126793233
-0.00588029437605889
0.0600044862674756
-0.0959442718186802
0.0562413525598226
0.0174106558736025
-0.0633272527522209
-0.0313539770382564
0.0939892370930929
0.0354712010342197
-0.021816535861483
0.0537827137177972
0.127881011249117
0.0897847277812402
0.0749557650362407
0.127327263971149
0.153108079547366
0.235568215948366
0.274178426262528
0.274209539691392
0.292537863392387
0.238381901324371
0.345394898208437
0.220877637718417
0.240304455855049
0.281808218497341
0.397158678467418
0.294043343603955
0.25744844099898
0.443522290132119
0.274432013536032
0.283498133794193
0.401507922075492
0.427318406948783
0.318980679827234
0.432931371976327
0.401119463647363
0.275342432779671
0.307114989103296
0.415305418956957
0.394753144098422
0.373782404436225
0.3269649749545
0.333813677058468
0.261739909826316
0.312746838698835
0.187479618000852
0.331576963259145
0.319525407204442
0.198025494583572
0.237069207777839
0.134119969325914
0.126447536153747
0.151612609014746
0.203509191143673
0.126552290335531
-0.0116714183703917
0.127660807145095
0.0510331226628111
0.0123415310195606
0.0944586642412533
0.103816378129009
-0.0992860947457893
-0.0341356211559907
-0.0545293374494373
-0.0471832404607808
-0.0115671833485662
0.0189326453085903
-0.14499002562287
0.014183993546155
-0.133931372775956
-0.0131766187452664
-0.153434155384624
-0.0175504497382085
-0.0277144698274376
-0.179705543715632
0.0151996969079462
-0.152552982235156
0.00722482037720351
-0.183601469638043
0.00775249270560002
-0.00365323689640665
-0.176244953406738
-0.145552080455777
-0.069105405223726
-0.0152011273064888
-0.0950763082813792
0.000787162899478874
0.00944656802467973
-0.0385709735151468
-0.05975081046299
-0.067700213377493
0.0142081111782057
-0.149432821819873
-0.156557247282824
-0.0831070985172791
-0.080718820208079
-0.0450192978612459
-0.166501444128545
-0.130416997005121
-0.0760740397451557
-0.14138291290104
-0.0283301080192045
0.00883730086403658
-0.00405824469361947
-0.0220487743788749
-0.0362856047380574
-0.153208307285918
-0.133490624026221
0.0153711287173043
-0.0682913035962361
-0.0665776949156415
-0.0102556927758476
-0.0338981379921581
-0.0647287160597834
-0.0980866097698034
-0.00567817842093629
-0.133837095703531
-0.0103780947282913
-0.0647548844914284
-0.00895232686038269
-0.0917544485515831
-0.068908855585208
-0.112505310832303
-0.129488735626566
-0.104157368000806
-0.0655350627165025
-0.0647787505642181
-0.0156254161697034
0.0376152490417613
-0.118624206103228
0.0540895324410819
0.0448228562050975
-0.00816677668823562
-0.0378220961080343
0.0464369591964667
0.0302813134000833
0.0177707902378452
-0.110017824731985
0.0626008435476555
-0.0110443095166348
0.0140493231307496
0.00878206169868536
-0.059111825635393
0.0656356200374453
0.0586836015646316
0.00375463365805195
0.114298976126853
-0.00833504919288441
0.136027931961501
0.0773669074659502
-0.0295866786310719
0.0359109966395987
0.0928653151995433
0.0871481323945127
0.0688353832923683
0.0827940887907977
0.257892896472431
0.136980900858355
0.244969171660067
0.130038797218279
0.3202565377912
0.250838000104247
0.167260886400179
0.279764470844141
0.284209477694308
0.1782861532101
0.284589525241254
0.24440053287836
0.231879453049707
0.251133424314456
0.201256841592365
0.147605174123538
0.200857137651016
0.27518995161728
0.155638871737668
0.0895921964908871
0.214524556404565
0.208392009804745
0.166803576781313
0.029744110758868
0.123736277812005
0.03895211870347
0.0661713540624007
-0.0364020598478736
0.0872871717575517
0.0429432003737024
0.0391722824718866
0.0436009083281764
-0.00984680010100089
0.0496090124770183
-0.0728926730244144
-0.0241343322957757
0.0524132500008804
0.0468198376179125
0.0695868895698907
-0.0722282812924683
-0.00840853854185721
-0.0548829392568113
-0.130697478368898
-0.118814915714459
-0.107302491867127
-0.129961169151375
-0.175750183400362
-0.239907919899848
-0.0661564241879605
-0.0419529031968046
-0.060888899834256
0.0761072447600601
0.350328163292857
0.430679143157224
0.783207863916796
0.854735843581028
0.972074999832011
1.13444396744722
1.0871387742439
1.02702087469933
1.07077931653749
0.810414991206594
0.563807899561143
0.449919094647832
0.0921954106788351
0.0861696362545527
-0.137567247590714
-0.169705537260074
-0.342615391501424
-0.203044436383111
-0.183812361828347
-0.300806351079596
-0.130701327580826
-0.108581322466911
-0.0491614171929672
-0.024580581912698
-0.0948405114959697
-0.00239257687767783
0.0317606436066977
0.0619158125407168
0.0353108878937798
-0.00828874822466794
0.0682013756503729
-0.0685434895293379
-0.0484460024086804
0.012056021989812
-0.015448522489634
0.00464494844557194
0.0808002204322843
0.0141039464848175
-0.0348508335644313
0.104663266344916
0.0213382791187819
0.0663051984222706
0.0861580149942043
0.160401503792986
0.103255363385495
0.109342233938556
0.181316604876091
0.0793511644207704
0.130003329168268
0.194253857306401
0.0493664012366999
0.247397875759368
0.116693463533561
0.208346541914207
0.12396850064256
0.272576444572243
0.262299071056305
0.157855805719452
0.350362058300975
0.205825092684537
0.34166896242761
0.331875439098289
0.38732742440561
0.343632937752362
0.450991344159959
0.365741272557092
0.503577125143849
0.341115525681151
0.469968619767318
0.392204618629461
0.551053782960095
0.525358777828617
0.466352032102321
0.428766007184995
0.464891413108613
0.437578690229823
0.488890105700641
0.498101428959759
0.485406938380849
0.477515380432541
0.434096369483381
0.394579328345949
0.408765260906593
0.372102351052251
0.363806453177756
0.305836283789365
0.344957756890961
0.360198850857955
0.4255216790406
0.359865600547366
0.21840631977235
0.246846983026784
0.169832151774948
0.195255221623226
0.188762356450911
0.174723120720232
0.145163681856464
0.180581223021713
0.112967261834697
0.136209343145749
0.179929387860421
0.0562749947515244
0.0714107813960225
0.0604690736046539
-0.0136080560193483
0.115970378096676
-0.03466472769811
0.114165180835246
0.0754535934286463
0.0532246250139084
0.05627407766652
0.0769597634781439
-0.0635163329542366
0.11270796359513
0.014797970888313
0.0440518300308283
-0.0875051868310621
-0.0193481573485664
-0.0204875085005814
0.051072042877853
-0.0217103176357489
-0.0692253903972991
-0.096793862942143
0.0429203240523578
-0.0314712979024041
0.0560225222022424
-0.0856626765755931
0.0688787521090981
0.0743869425445582
-0.00130258974212445
0.0921990553940762
0.0445586324916219
0.017274658577068
0.0165979364639976
-0.0487704372987585
0.0201448635968607
-0.0280085554447178
-0.0789277005613358
0.039844758698826
-0.0235799583721054
0.0636241211107869
0.0390296925514946
-0.0608307210846301
0.0325579710416433
0.105290578306814
0.0576375390267233
0.00878322135695041
-0.0120363158167822
-0.0686787663393172
-0.0070073672265071
-0.0517501279913814
0.00828941100938855
0.0920481944735095
-0.052515645111263
-0.0684597125175816
-0.0780383930278611
0.0481809741771249
0.0429862077146774
-0.0740844142012781
0.00910258554126132
-0.047961052929212
-0.0229978417526757
-0.0494767853690897
-0.0695553059495533
-0.0465261856612744
-0.0326018814636305
0.0347721710638558
-0.0618718494357985
0.107358713928558
-0.0444127069976617
0.0253874152974694
-0.0705107790551037
-0.063794039484754
-0.034872604737653
0.120309917594829
0.0972942777314335
-0.0579750825837203
0.0198718958143559
-0.0448592629751094
0.0395694264340012
-0.0550976157442898
0.0768830593656493
0.0711047538372156
0.0978251254130296
0.0525506386881035
-0.0430076499325356
0.145256227766686
0.0429362385133121
0.172245839851599
0.0729442197232908
0.13850745977465
0.201816369974897
0.0986232856069442
0.107424262560881
0.208658156234541
0.0739688180602435
0.129036591543012
0.275823474963032
0.203039667703125
0.325263969941335
0.203768615759061
0.262703213887823
0.199778346159185
0.353166029956201
0.220510803375941
0.310439136325154
0.234419054368985
0.376801263273701
0.418836879253457
0.256088475104988
0.297819305202297
0.253573776120769
0.283809607084525
0.35148231838649
0.283392395139832
0.195499705902146
0.193000877021052
0.136533417353497
0.1309467282834
0.253506592307798
0.0820145046910401
0.189068019817406
0.140849372154079
0.127429989142471
0.166438572155258
0.0162342403516556
0.0414883795266603
0.152682685467895
0.12434954780295
-0.0286389670477576
-0.0256396891298439
0.0794097261706676
-0.0123233823008257
0.0222962382416827
-0.0305565890176814
0.110231556171811
-0.0856923245097406
-0.0555173427110871
0.0745405894957257
-0.036177523849192
-0.00697554030216425
-0.181766006106926
-0.0852024704631685
-0.143922282846863
-0.0993871247692854
-0.187745854526633
-0.121488648705543
-0.129720720144719
-0.0634224748272969
0.0710982272247706
0.259492193869066
0.579535666143994
0.645732972038651
0.896925587834683
0.973944068662012
1.25687838392636
1.29894683242088
1.19194895738098
0.956380537607729
0.851562232414097
0.666383350716793
0.445346582143966
0.267108883562574
0.011023432129185
-0.198149688891189
-0.190147856242887
-0.214756077892875
-0.291453132362226
-0.295259951250226
-0.333683064165513
-0.214911167706363
-0.226609876491814
-0.139303842002546
0.00824698002580322
-0.0935737601493937
-0.0904796769705341
0.000171263590816928
-0.0983924258925893
-0.0678755202524885
-0.0224303141332775
0.0647842711897516
-0.0424367938719663
-0.0388749341788421
0.065388039144415
-0.0129674859307519
-0.07509204596808
0.0483580738371648
-0.0366598789468831
-0.0600303064254126
0.0808152515469354
0.00277054557875675
0.129374921744032
0.129310212178708
-0.0168076399453845
0.155498283201044
0.105666323379894
0.0234337200743116
0.120291176774575
0.0696861644857664
0.111870012306897
0.0785035901992565
0.202107256158683
0.178074857305418
0.212936061350306
0.191175273645066
0.154065462100005
0.27745167021977
0.263950306992653
0.295579152170863
0.186122365189332
0.202468987373652
0.285331345915793
0.319379009816205
0.3082486607689
0.346271412193874
0.410919887278121
0.337593541430992
0.334486571626713
0.491226526275101
0.377801461274192
0.441376130409326
0.382848012587246
0.404385587438577
0.494745016428195
0.523757407682276
0.386874833623435
0.512208375203993
0.372428144787988
0.422285322902872
0.387974940895878
0.45990578996231
0.427465819904162
0.421316610517395
0.461722846273686
0.317838592928211
0.39370579749852
0.362478039869939
0.245318111927807
0.270218393537291
0.360541271726793
0.24216414507727
0.18363353249511
0.242033466859591
0.17957489203121
0.122532124725072
0.191343937463206
0.154616421296702
0.0723185803863984
0.0360504528182768
0.0785416464614855
0.187959705681715
0.0426950448399848
0.0782190427381392
0.0126583436873954
0.0675693887525963
0.0952120579597395
-0.004321024669646
0.0241345368712229
0.0943846192138015
-0.0749805711631992
0.0655866304212156
0.00114826306683056
0.0641521758165011
-0.0247539098971577
-0.0349464932286067
-0.104015591367883
-0.0598751090248392
-0.132316087312626
0.0327614628620529
-0.126338139920722
-0.000555485642914133
0.0412509431215564
-0.00704576719608169
-0.107545946004559
-0.11392418844553
-0.0377944893175407
-0.120194664478142
-0.00253349859801445
0.0441365993961648
-0.142893772652972
-0.00796085892365339
-0.00611554909434855
-0.116517934716484
-0.114908872533324
-0.0718863996894189
0.00157675083362371
-0.143384079469745
0.0424967881360647
-0.0387430178390536
-0.109027214331887
0.0396650382706925
-0.0921757725132817
-0.00433845244512925
-0.0494762643431992
-0.0152448283285364
0.0372060661181813
-0.0185897690704619
-0.0131523692364623
-0.061141226482584
0.0103357932966148
0.0148985963638544
-0.13010217304703
0.00331724697194305
-0.0598288814856983
0.00321731079591719
-0.0846751413336816
0.0370448466267935
0.0120576266612469
-0.0680867580574987
-0.035397039628193
0.0494332522901931
0.0426870021231626
0.00916783564538792
-0.0211616878472709
-0.0459633347074903
-0.123586319836312
-0.0733692902632191
-0.0296310361264839
-0.0412950664399448
-0.0568317968838403
-0.0596307872964333
-0.013817702815587
-0.123850739791973
-0.0673997871892613
-0.0761996694504035
-0.138220484760851
0.0367009920798252
-0.141653729454522
0.0127707857780775
0.0519151611089486
0.00938740883455812
-0.0416737948660895
-0.0461864114362259
-0.0129723660209808
-0.0643527395814934
-0.0952850916594646
-0.0698641337318816
-0.0225884198921679
0.0192464830993066
0.0694745570009645
0.0376045722142735
0.0455750742445873
-0.0259169602494571
-0.00792195306144398
0.0315628133997555
0.149562505478603
0.0501597597433699
0.12427701534946
0.115360411345736
0.239629769384156
0.119146652014478
0.202892701195035
0.138861505275482
0.168269852272212
0.231851800020313
0.201294383501002
0.182167114855697
0.199654778799004
0.308953485173856
0.333246502998759
0.25027688858521
0.195277289783678
0.149623902300307
0.128716545845768
0.189648751742115
0.243813739415144
0.181036623142824
0.213218042924147
0.117709555240754
0.150333224499062
0.0536877027720791
0.0827257810636511
0.0735110057419047
-0.0188671671839697
-0.033950301950085
-0.0925808473786959
0.0590235653563605
-0.00955901657994913
0.00693623482704497
0.0208288479890563
-0.0212422848908761
-0.147396726740391
-0.0780261026250784
-0.0624229466693644
-0.148763432217723
0.0259683054946256
-0.0759668476934102
-0.119196979501583
-0.19610128021339
-0.109088793331642
-0.145010880317085
-0.109332718924998
-0.303579143990205
-0.14484125569483
-0.153961376680276
-0.162074516264701
-0.256215968061392
-0.256346035665977
-0.00343582027261384
0.106782202426419
0.283516858683704
0.43445372426442
0.692685552544586
0.792470579911896
1.04604397750213
1.16052083652227
1.13602415954623
1.03686370021469
1.01662608116203
0.692720456532924
0.562326392947897
0.381621428785316
0.180346789669812
-0.084740705299873
-0.288894338039718
-0.213236095946186
-0.327104968579802
-0.320378347556001
-0.364951459022437
-0.25760739959982
-0.344387412428113
-0.246310505282337
-0.272185732985004
-0.145748346843307
-0.207164870019055
-0.205990237006428
-0.14144754582721
-0.180786468384811
-0.0902853273057474
-0.100549125443276
-0.149502972015579
-0.150421372135591
-0.146921034994672
-0.10208182912174
-0.174933938605547
-0.11622486005819
-0.164239346010483
-0.0731783317067493
-0.084127040659383
-0.136271591913872
-0.135227935429936
0.0169091565910272
0.0455394279663551
-0.0932758318576704
-0.00678655152808203
0.0577278975819027
-0.0721447862942023
0.0557370564271602
0.0850117808180821
0.000498729238897232
0.0976689203436676
0.01137425489417
0.0522332079802047
0.129027580345623
0.155835699438599
0.113719910296956
0.105624907785001
0.0620441071335091
0.210108033987129
0.231389958965858
0.259260472190863
0.129809452985353
0.239037123426132
0.340441807291542
0.218294745941456
0.250923203605872
0.392200305606639
0.309865280553786
0.287324825568512
0.322045748679084
0.338136728892623
0.302523046933559
0.310038836650354
0.269684290794772
0.41681149702461
0.265795202167856
0.438226813969699
0.344368747068923
0.376987818426762
0.419934942728285
0.234477789349192
0.377450536208798
0.265167079827849
0.231350045016947
0.304844531188901
0.178143195900677
0.29090536756422
0.173287353305867
0.146483446347356
0.289112228452045
0.200398733808708
0.215966933361022
0.121789796708045
0.0292039329388498
0.128356033111736
0.14862398631895
0.114636069505589
-0.0528058902282883
0.108340289953205
-0.0461740137018798
-0.0633362774337692
-0.105407212363556
0.00606453288702852
-0.0984887554550883
-0.0801410249900111
-0.0539319237414603
-0.136384787904671
-0.131060206221263
-0.0277637736272182
-0.0476007288999542
-0.140273474037341
-0.146004089273644
-0.19436193591776
-0.207669127195179
-0.129463295625305
-0.0822290722049361
-0.13907059126363
-0.10065763954555
-0.0957556278319027
-0.187799960475279
-0.0760350273341565
-0.178983197028315
-0.0873778731352644
-0.13168879707065
-0.224746788638984
-0.073413765123651
-0.10601832933786
-0.0994879109762855
-0.212439495411743
-0.125684356671927
-0.159963254201871
-0.0981937065325637
-0.133333183480279
-0.0729317385887082
-0.0960461772745306
-0.177879565766711
-0.113879111416613
-0.226495914790788
-0.0438848833429486
-0.219964144487992
-0.150281220232009
-0.157109867512568
-0.195608760137366
-0.196527711255702
-0.100584982386498
-0.0727354745821344
-0.0876100499307053
-0.0816977463296972
-0.193494640036914
-0.0454654372218869
-0.0657942976550193
-0.0791107862312169
-0.105816714083419
-0.21698893356251
-0.0583070219673754
-0.201267206040084
-0.0849164391314192
-0.0962467841867709
-0.0769273447871119
-0.122031642097304
-0.157218534297195
-0.179310553237992
-0.128914240617427
-0.075133188485794
-0.211690324427109
-0.0393883107209066
-0.209605408758026
-0.133991900371138
-0.069843911777232
-0.0510869021542092
-0.0296042906193594
-0.0349950649613832
-0.12921489270551
-0.0899992953124951
-0.120356834117489
-0.132778836565436
-0.0477863956964194
-0.0361954420193972
-0.205228460871892
-0.189834689798545
-0.0251659344397727
-0.0121641566522803
-0.0959738456376989
-0.0230864287167533
-0.0706970357957384
-0.0743025864079662
-0.0563789790094735
-0.151373239542293
-0.0111887069036835
-0.101493547661955
-0.0157882816642268
-0.0660671081668778
-0.0185531600860305
-0.0889113424408735
-0.062345279763357
0.109230244922571
-0.0253308787653316
-0.00276507724567364
0.143194912898205
0.104745952133636
0.137915470611278
0.0762602764129641
0.13376236574584
0.241855055182096
0.249410060551647
0.142076829252513
0.0912069164014147
0.219162480527674
0.225286770888618
0.225356142439182
0.132793346967278
0.212284139590403
0.244324341148906
0.0954198243245468
0.168562760569978
0.174090151064879
0.0826606915883894
0.103618878729099
0.0732634870396636
0.00274356904931914
-0.0732830678669625
0.064432908518168
0.0593194240534978
0.0718930942046028
0.0127857450085941
0.0257451930503363
-0.136201694839101
-0.16718218513151
-0.0747067948152126
-0.119519095319952
-0.132820226480723
-0.0258348301962399
-0.0271039244197058
-0.116547458173153
-0.134546085444598
-0.0311732087943338
-0.0630131317894925
-0.218008053749387
-0.0508744857496397
-0.0850160490842037
-0.162586433460471
-0.246361877933806
-0.154353741252086
-0.271286332889203
-0.195784889940949
-0.200645427282016
-0.150390405452522
-0.221744830991008
-0.168519231312386
-0.0394658669359439
0.219835060265439
0.482753563659392
0.534690104896866
0.82619700967522
0.982055381712203
0.981870833075996
1.05809067603097
1.09080931971085
0.837398895005236
0.743565237856064
0.441804842228791
0.223020432086861
0.0415181500751887
-0.0456217481470738
-0.171190802833701
-0.323658002995461
-0.362916018871333
-0.487819819555995
-0.417788799411385
-0.342312500754893
-0.280696892670753
-0.314183100429522
-0.160571393796281
-0.186295139529569
-0.170989212985993
-0.224310832861313
-0.194658234066188
-0.198520925977455
-0.169723159394449
-0.0851505561746654
-0.157744209959313
-0.0388644031809126
-0.174373698143136
-0.139380247669861
0.00959102326055418
-0.0917033962047844
-0.041904267553979
0.00776048661722767
-0.01768165152327
-0.131535989887345
-0.0600259771983555
-0.120756579482418
-0.100430184330685
-0.0246283364752713
0.0630053170115954
-0.0169581226826857
-0.00457330625780404
-0.021003270991956
0.0562473638166702
0.0603031211354449
0.0143061529946734
0.160137516629345
0.0128700841688381
0.050331331481556
0.204605507520107
0.0635123785926989
0.157169451495226
0.184779257293474
0.214165291165377
0.216329693711999
0.200018999027515
0.164354711618067
0.310486859656514
0.302565161020974
0.322209766738516
0.205974324832721
0.270727438845716
0.261807922873568
0.243690392765782
0.389522283977786
0.439873084842722
0.371393759628514
0.312190390539591
0.3372278789529
0.420329473694274
0.337599320001712
0.388624300292856
0.363119648573913
0.415818164007036
0.266593803887082
0.306863863000966
0.408635558478346
0.32105256262079
0.358951850891711
0.347624693922872
0.205010247412607
0.285352805975863
0.159357043064899
0.224567175131587
0.255131052523964
0.140685086392902
0.190331430426535
0.249615382746099
0.0733812288429843
0.143970226942369
0.104018362850491
0.157228373436732
0.0939311113153568
0.110966280281954
-0.00960748372869422
-0.0296719125103661
0.0476015231271897
-0.0493392409175561
0.0766432524462596
0.0234119315959673
-0.114909605825109
-0.0404848616975144
0.0194149610115406
-0.0504610685606634
-0.0974484199949587
-0.0271308631703371
-0.11747704191171
-0.0246086001761759
-0.0199646975094097
0.0118527943197191
-0.0669246023874292
-0.139216503746688
-0.0804303107078735
-0.158957675017462
-0.150521150411196
-0.0632649786166579
-0.0123996382042239
-0.100465230705788
-0.0819313825701118
-0.102552262842248
-0.0561026370994255
0.00479041886049761
-0.105899475767644
-0.0428952408540763
-0.0487024375036165
-0.104594356564968
-0.00363992029532158
-0.14297227117879
-0.163630432202199
-0.0359470744899866
-0.103609135622582
-0.0608764674389926
-0.159768359290612
0.00641223755295262
-0.00900426870847866
-0.00547635115210372
-0.0563026822005977
-0.121184910342646
-0.0248987287268662
-0.112022470852148
-0.0327782709192378
-0.0653939697359684
0.0225407593624222
-0.134918451306938
-0.0609048584891631
-0.0615027270265917
-0.124413165899081
0.0191976705474004
-0.0820299422344554
-0.0952347440501456
-0.0385782963251294
-0.111564449560646
-0.0899163834753069
-0.0332519112092313
-0.0616105250923565
-0.0879899813862803
-0.0149598158822346
-0.0856788693769832
0.0432409562350968
-0.0418543309943291
-0.113064287041058
-0.00846608578544206
0.0518152798237143
0.010923238355074
-0.0704692027369283
0.013049714284786
-0.13096489655355
-0.0812236317306463
-0.140519858343539
-0.0781561135267489
-0.0742328379081983
-0.070959310845423
-0.103582016187666
0.0228961263581367
-0.124699870788281
-0.108090880368525
-0.0611794657151195
-0.119517980351701
-0.0592259577715042
-0.0753436011163147
0.0067160565958629
-0.0114391637065152
0.0269730596867013
0.104218820241366
-0.0398939026504951
-0.0593986317326554
0.138163973634987
0.0223572491292894
0.0458889584951384
0.137999018041647
0.134303007534265
0.11661864060594
0.134690237613428
0.257776901318599
0.155755848538481
0.171480015984587
0.31652354290274
0.230311945003815
0.172973835537172
0.319094982673051
0.325572355018684
0.226362261164363
0.25858032947387
0.253012879685465
0.370573845418196
0.238700998187428
0.156850024430259
0.214806064207513
0.232143394284661
0.28297559319155
0.200667179429348
0.187342620217488
0.0978213266445998
0.0639819405723829
0.0434407767410332
0.0526228898496252
0.183542106085434
0.00286132248663873
0.00118232946505757
0.115610229784895
-0.0549536107585197
0.120656875978562
0.0140214619330354
0.0209909490371461
-0.0357209221755768
-0.0600284946839732
-0.00686635357491554
-0.0619644242978685
-0.0455806465948408
-0.0630738540868173
0.0356119430580499
-0.0730859636024128
-0.058088200183426
-0.0557254647356088
-0.0292345356581551
-0.0666915351155244
-0.0727075104507905
-0.126526476593714
-0.264906790552624
-0.247353678795315
-0.261465862596299
-0.0700135540108903
-0.177938346232321
-0.0260627250477768
0.0976493159371414
0.256293269964173
0.53029234006316
0.638263345264677
0.893662737341601
1.09274609243759
1.21651625966139
1.24500275478311
1.15963514146306
0.94390920299795
0.918807828741765
0.701441776994413
0.360188914279185
0.269849082750266
-0.077677620573337
-0.0979933070286151
-0.308476456921247
-0.208812804170691
-0.250947921006679
-0.346884183060703
-0.337336476706418
-0.170217904445605
-0.220224764267405
-0.214674705151386
-0.0883380494753179
-0.0475252846902026
-0.120870887365708
-0.118506581240273
0.00946979316189627
-0.0486765071726394
-0.0251625089423656
-0.0927430313055343
-0.00844379288221775
-0.0899713437798852
0.0992929323732522
-0.011103793496182
-0.0620298357818584
-0.0609697551214554
0.0156317975647467
-0.0273294264524504
0.134924764767187
-0.0309923313606672
-0.0370985289773842
0.146809272772935
0.136165701505246
0.0577206505232606
0.0807204486229797
0.10192859353077
0.131015211157747
0.202600206242306
0.136271658957394
0.137373240038468
0.124123741837551
0.25424977692692
0.275205953158196
0.224537856562217
0.174315205297025
0.319263462615033
0.352439684134751
0.27639496142742
0.382718552516306
0.374454057362024
0.335362499269652
0.298627818054755
0.432481807989691
0.459753789029963
0.389276646441105
0.476565022885953
0.378681572314553
0.34742765005785
0.514644256929478
0.522505662599476
0.419219037480975
0.464159945889908
0.501559157875376
0.519232883272302
0.405120217352029
0.442909945651989
0.517260917504671
0.481957036177297
0.488374912368514
0.497753858082801
0.469976368711895
0.419953502994157
0.45337576577399
0.369785387916812
0.340710310367883
0.37554559327404
0.298189822874897
0.342743420700683
0.327845343424876
0.316173284952465
0.239970793108033
0.185875662083569
0.147132200290443
0.141755303842672
0.275976107902711
0.183964103353172
0.242646536246335
0.0751991477530983
0.152618403898065
0.210213153084767
0.112570549669442
0.0366300673954613
0.108754140924449
0.164944434510307
0.0845055220790296
0.140446405989982
-0.023629874603186
0.0253118849697678
0.0693194565687924
0.0513630335771977
0.0323362108977978
0.112026776219574
0.0479329734245072
0.066861239070521
0.0830774081176833
0.0382217581857263
-0.0699022341957709
-0.0352102003573938
0.00232277494855688
0.0441804992887442
0.0252231090767688
-0.0446889644060867
0.0475175364971121
-0.0949529696230081
0.0251032743205558
-0.0256381833181471
-0.0928171212258608
-0.0815838278856862
0.0559298869263899
