1.07417274042998	1.07417274042998	1.07417274042998	1.07417274042998	1.07417274042998	1.07417274042998
1.03126396723547	1.03126396723547	1.03126396723547	1.03126396723547	1.03126396723547	1.03126396723547
0.919066657249667	0.919066657249667	0.919066657249667	0.919066657249667	0.919066657249667	0.919066657249667
0.754104162265688	0.754104162265688	0.754104162265688	0.754104162265688	0.754104162265688	0.754104162265688
0.559242083075212	0.559242083075212	0.559242083075212	0.559242083075212	0.559242083075212	0.559242083075212
0.355346930302949	0.355346930302949	0.355346930302949	0.355346930302949	0.355346930302949	0.355346930302949
0.161052017462931	0.161052017462931	0.161052017462931	0.161052017462931	0.161052017462931	0.161052017462931
-0.00774011313508549	-0.00774011313508549	-0.00774011313508549	-0.00774011313508549	-0.00774011313508549	-0.00774011313508549
-0.142694218686651	-0.142694218686651	-0.142694218686651	-0.142694218686651	-0.142694218686651	-0.142694218686651
-0.241038497978361	-0.241038497978361	-0.241038497978361	-0.241038497978361	-0.241038497978361	-0.241038497978361
-0.302665073494449	-0.302665073494449	-0.302665073494449	-0.302665073494449	-0.302665073494449	-0.302665073494449
-0.330108973091993	-0.330108973091993	-0.330108973091993	-0.330108973091993	-0.330108973091993	-0.330108973091993
-0.328548130000915	-0.328548130000915	-0.328548130000915	-0.328548130000915	-0.328548130000915	-0.328548130000915
-0.305545965473973	-0.305545965473973	-0.305545965473973	-0.305545965473973	-0.305545965473973	-0.305545965473973
-0.268825186497	-0.268825186497	-0.268825186497	-0.268825186497	-0.268825186497	-0.268825186497
-0.226263383852688	-0.226263383852688	-0.226263383852688	-0.226263383852688	-0.226263383852688	-0.226263383852688
-0.184131147808841	-0.184131147808841	-0.184131147808841	-0.184131147808841	-0.184131147808841	-0.184131147808841
-0.146775642768278	-0.146775642768278	-0.146775642768278	-0.146775642768278	-0.146775642768278	-0.146775642768278
-0.116620607268837	-0.116620607268837	-0.116620607268837	-0.116620607268837	-0.116620607268837	-0.116620607268837
-0.0941663539833701	-0.0941663539833701	-0.0941663539833701	-0.0941663539833701	-0.0941663539833701	-0.0941663539833701
-0.0782587034030428	-0.0782587034030428	-0.0782587034030428	-0.0782587034030428	-0.0782587034030428	-0.0782587034030428
-0.0675337227383256	-0.0675337227383256	-0.0675337227383256	-0.0675337227383256	-0.0675337227383256	-0.0675337227383256
-0.0604936867438708	-0.0604936867438708	-0.0604936867438708	-0.0604936867438708	-0.0604936867438708	-0.0604936867438708
-0.0558586120145692	-0.0558586120145692	-0.0558586120145692	-0.0558586120145692	-0.0558586120145692	-0.0558586120145692
-0.0526013697432062	-0.0526013697432062	-0.0526013697432062	-0.0526013697432062	-0.0526013697432062	-0.0526013697432062
-0.0499476857204627	-0.0499476857204627	-0.0499476857204627	-0.0499476857204627	-0.0499476857204627	-0.0499476857204627
-0.0473761403349146	-0.0473761403349146	-0.0473761403349146	-0.0473761403349146	-0.0473761403349146	-0.0473761403349146
-0.0446181685730332	-0.0446181685730332	-0.0446181685730332	-0.0446181685730332	-0.0446181685730332	-0.0446181685730332
-0.0416580600191848	-0.0416580600191848	-0.0416580600191848	-0.0416580600191848	-0.0416580600191848	-0.0416580600191848
-0.0385339207764051	-0.0385339207764051	-0.0385339207764051	-0.0385339207764051	-0.0385339207764051	-0.0385339207764051
-0.0350819754271988	-0.0350819754271988	-0.0350819754271988	-0.0350819754271988	-0.0350819754271988	-0.0350819754271988
-0.0312583524018019	-0.0312583524018019	-0.0312583524018019	-0.0312583524018019	-0.0312583524018019	-0.0312583524018019
-0.0270218887285579	-0.0270218887285579	-0.0270218887285579	-0.0270218887285579	-0.0270218887285579	-0.0270218887285579
-0.0223326136290841	-0.0223326136290841	-0.0223326136290841	-0.0223326136290841	-0.0223326136290841	-0.0223326136290841
-0.0171517485182708	-0.0171517485182708	-0.0171517485182708	-0.0171517485182708	-0.0171517485182708	-0.0171517485182708
-0.0114417070042818	-0.0114417070042818	-0.0114417070042818	-0.0114417070042818	-0.0114417070042818	-0.0114417070042818
-0.00516609488855413	-0.00516609488855413	-0.00516609488855413	-0.00516609488855413	-0.00516609488855413	-0.00516609488855413
0.00171028983420202	0.00171028983420202	0.00171028983420202	0.00171028983420202	0.00171028983420202	0.00171028983420202
0.00922145697600296	0.00922145697600296	0.00922145697600296	0.00922145697600296	0.00922145697600296	0.00922145697600296
0.0173936591671568	0.0173936591671568	0.0173936591671568	0.0173936591671568	0.0173936591671568	0.0173936591671568
0.026233880599445	0.026233880599445	0.026233880599445	0.026233880599445	0.026233880599445	0.026233880599445
0.0357749239962273	0.0357749239962273	0.0357749239962273	0.0357749239962273	0.0357749239962273	0.0357749239962273
0.0460424145781737	0.0460424145781737	0.0460424145781737	0.0460424145781737	0.0460424145781737	0.0460424145781737
0.0570507062663503	0.0570507062663503	0.0570507062663503	0.0570507062663503	0.0570507062663503	0.0570507062663503
0.0688028816822202	0.0688028816822202	0.0688028816822202	0.0688028816822202	0.0688028816822202	0.0688028816822202
0.0812907521476421	0.0812907521476421	0.0812907521476421	0.0812907521476421	0.0812907521476421	0.0812907521476421
0.0944948576848713	0.0944948576848713	0.0944948576848713	0.0944948576848713	0.0944948576848713	0.0944948576848713
0.10838446701656	0.10838446701656	0.10838446701656	0.10838446701656	0.10838446701656	0.10838446701656
0.122917577565756	0.122917577565756	0.122917577565756	0.122917577565756	0.122917577565756	0.122917577565756
0.138040915455904	0.138040915455904	0.138040915455904	0.138040915455904	0.138040915455904	0.138040915455904
0.153689935510845	0.153689935510845	0.153689935510845	0.153689935510845	0.153689935510845	0.153689935510845
0.169788821254816	0.169788821254816	0.169788821254816	0.169788821254816	0.169788821254816	0.169788821254816
0.186250484912451	0.186250484912451	0.186250484912451	0.186250484912451	0.186250484912451	0.186250484912451
0.20297656740878	0.20297656740878	0.20297656740878	0.20297656740878	0.20297656740878	0.20297656740878
0.21985743836923	0.21985743836923	0.21985743836923	0.21985743836923	0.21985743836923	0.21985743836923
0.236772196119623	0.236772196119623	0.236772196119623	0.236772196119623	0.236772196119623	0.236772196119623
0.253588667686178	0.253588667686178	0.253588667686178	0.253588667686178	0.253588667686178	0.253588667686178
0.270163408795512	0.270163408795512	0.270163408795512	0.270163408795512	0.270163408795512	0.270163408795512
0.286342314766011	0.286342314766011	0.286342314766011	0.286342314766011	0.286342314766011	0.286342314766011
0.302024164864477	0.302024164864477	0.302024164864477	0.302024164864477	0.302024164864477	0.302024164864477
0.317071395263505	0.317071395263505	0.317071395263505	0.317071395263505	0.317071395263505	0.317071395263505
0.331310450856711	0.331310450856711	0.331310450856711	0.331310450856711	0.331310450856711	0.331310450856711
0.344582844356895	0.344582844356895	0.344582844356895	0.344582844356895	0.344582844356895	0.344582844356895
0.356745156296035	0.356745156296035	0.356745156296035	0.356745156296035	0.356745156296035	0.356745156296035
0.367669035025292	0.367669035025292	0.367669035025292	0.367669035025292	0.367669035025292	0.367669035025292
0.37724119671501	0.37724119671501	0.37724119671501	0.37724119671501	0.37724119671501	0.37724119671501
0.385363425354711	0.385363425354711	0.385363425354711	0.385363425354711	0.385363425354711	0.385363425354711
0.3919525727531	0.3919525727531	0.3919525727531	0.3919525727531	0.3919525727531	0.3919525727531
0.396940558538063	0.396940558538063	0.396940558538063	0.396940558538063	0.396940558538063	0.396940558538063
0.400274370156669	0.400274370156669	0.400274370156669	0.400274370156669	0.400274370156669	0.400274370156669
0.401916062875164	0.401916062875164	0.401916062875164	0.401916062875164	0.401916062875164	0.401916062875164
0.40184275977898	0.40184275977898	0.40184275977898	0.40184275977898	0.40184275977898	0.40184275977898
0.400046651772728	0.400046651772728	0.400046651772728	0.400046651772728	0.400046651772728	0.400046651772728
0.3965349975802	0.3965349975802	0.3965349975802	0.3965349975802	0.3965349975802	0.3965349975802
0.391312682226818	0.391312682226818	0.391312682226818	0.391312682226818	0.391312682226818	0.391312682226818
0.384288269069928	0.384288269069928	0.384288269069928	0.384288269069928	0.384288269069928	0.384288269069928
0.375585086230425	0.375585086230425	0.375585086230425	0.375585086230425	0.375585086230425	0.375585086230425
0.365373676610132	0.365373676610132	0.365373676610132	0.365373676610132	0.365373676610132	0.365373676610132
0.353819298864935	0.353819298864935	0.353819298864935	0.353819298864935	0.353819298864935	0.353819298864935
0.341081927404778	0.341081927404778	0.341081927404778	0.341081927404778	0.341081927404778	0.341081927404778
0.327316252393666	0.327316252393666	0.327316252393666	0.327316252393666	0.327316252393666	0.327316252393666
0.312671679749667	0.312671679749667	0.312671679749667	0.312671679749667	0.312671679749667	0.312671679749667
0.297292331144905	0.297292331144905	0.297292331144905	0.297292331144905	0.297292331144905	0.297292331144905
0.281317044005569	0.281317044005569	0.281317044005569	0.281317044005569	0.281317044005569	0.281317044005569
0.264879371511906	0.264879371511906	0.264879371511906	0.264879371511906	0.264879371511906	0.264879371511906
0.248107582598225	0.248107582598225	0.248107582598225	0.248107582598225	0.248107582598225	0.248107582598225
0.231124661952893	0.231124661952893	0.231124661952893	0.231124661952893	0.231124661952893	0.231124661952893
0.214048310018342	0.214048310018342	0.214048310018342	0.214048310018342	0.214048310018342	0.214048310018342
0.19699094299106	0.19699094299106	0.19699094299106	0.19699094299106	0.19699094299106	0.19699094299106
0.180059692821598	0.180059692821598	0.180059692821598	0.180059692821598	0.180059692821598	0.180059692821598
0.163356407214567	0.163356407214567	0.163356407214567	0.163356407214567	0.163356407214567	0.163356407214567
0.14697764962864	0.14697764962864	0.14697764962864	0.14697764962864	0.14697764962864	0.14697764962864
0.131014699276547	0.131014699276547	0.131014699276547	0.131014699276547	0.131014699276547	0.131014699276547
0.115553551125082	0.115553551125082	0.115553551125082	0.115553551125082	0.115553551125082	0.115553551125082
0.100674915895097	0.100674915895097	0.100674915895097	0.100674915895097	0.100674915895097	0.100674915895097
0.0864542200615083	0.0864542200615083	0.0864542200615083	0.0864542200615083	0.0864542200615083	0.0864542200615083
0.0729616058532887	0.0729616058532887	0.0729616058532887	0.0729616058532887	0.0729616058532887	0.0729616058532887
0.0602619312534721	0.0602619312534721	0.0602619312534721	0.0602619312534721	0.0602619312534721	0.0602619312534721
0.0484147699991563	0.0484147699991563	0.0484147699991563	0.0484147699991563	0.0484147699991563	0.0484147699991563
0.0374562867915145	0.0374562867915145	0.0374562867915145	0.0374562867915145	0.0374562867915145	0.0374562867915145
0.0273607166660595	0.0273607166660595	0.0273607166660595	0.0273607166660595	0.0273607166660595	0.0273607166660595
0.0180946220198007	0.0180946220198007	0.0180946220198007	0.0180946220198007	0.0180946220198007	0.0180946220198007
0.00962448317108888	0.00962448317108888	0.00962448317108888	0.00962448317108888	0.00962448317108888	0.00962448317108888
0.00191662210102378	0.00191662210102378	0.00191662210102378	0.00191662210102378	0.00191662210102378	0.00191662210102378
-0.00506279754654676	-0.00506279754654676	-0.00506279754654676	-0.00506279754654676	-0.00506279754654676	-0.00506279754654676
-0.0113477704650257	-0.0113477704650257	-0.0113477704650257	-0.0113477704650257	-0.0113477704650257	-0.0113477704650257
-0.0169724496850679	-0.0169724496850679	-0.0169724496850679	-0.0169724496850679	-0.0169724496850679	-0.0169724496850679
-0.0219711465745796	-0.0219711465745796	-0.0219711465745796	-0.0219711465745796	-0.0219711465745796	-0.0219711465745796
-0.0263783308387181	-0.0263783308387181	-0.0263783308387181	-0.0263783308387181	-0.0263783308387181	-0.0263783308387181
-0.0302286305198923	-0.0302286305198923	-0.0302286305198923	-0.0302286305198923	-0.0302286305198923	-0.0302286305198923
-0.0335568319977626	-0.0335568319977626	-0.0335568319977626	-0.0335568319977626	-0.0335568319977626	-0.0335568319977626
-0.0363978799892406	-0.0363978799892406	-0.0363978799892406	-0.0363978799892406	-0.0363978799892406	-0.0363978799892406
-0.0387868775484896	-0.0387868775484896	-0.0387868775484896	-0.0387868775484896	-0.0387868775484896	-0.0387868775484896
-0.0407590860669241	-0.0407590860669241	-0.0407590860669241	-0.0407590860669241	-0.0407590860669241	-0.0407590860669241
-0.0423499252732099	-0.0423499252732099	-0.0423499252732099	-0.0423499252732099	-0.0423499252732099	-0.0423499252732099
-0.0435949732332644	-0.0435949732332644	-0.0435949732332644	-0.0435949732332644	-0.0435949732332644	-0.0435949732332644
-0.0445299663502564	-0.0445299663502564	-0.0445299663502564	-0.0445299663502564	-0.0445299663502564	-0.0445299663502564
-0.045190799364606	-0.045190799364606	-0.045190799364606	-0.045190799364606	-0.045190799364606	-0.045190799364606
-0.0456135253539848	-0.0456135253539848	-0.0456135253539848	-0.0456135253539848	-0.0456135253539848	-0.0456135253539848
-0.0458343557333158	-0.0458343557333158	-0.0458343557333158	-0.0458343557333158	-0.0458343557333158	-0.0458343557333158
-0.0458896602547733	-0.0458896602547733	-0.0458896602547733	-0.0458896602547733	-0.0458896602547733	-0.0458896602547733
-0.0458152592460088	-0.0458152592460088	-0.0458152592460088	-0.0458152592460088	-0.0458152592460088	-0.0458152592460088
-0.0456254191498498	-0.0456254191498498	-0.0456254191498498	-0.0456254191498498	-0.0456254191498498	-0.0456254191498498
-0.0453274438846801	-0.0453274438846801	-0.0453274438846801	-0.0453274438846801	-0.0453274438846801	-0.0453274438846801
-0.0449323438248169	-0.0449323438248169	-0.0449323438248169	-0.0449323438248169	-0.0449323438248169	-0.0449323438248169
-0.0444505758359935	-0.0444505758359935	-0.0444505758359935	-0.0444505758359935	-0.0444505758359935	-0.0444505758359935
-0.0438920432753596	-0.0438920432753596	-0.0438920432753596	-0.0438920432753596	-0.0438920432753596	-0.0438920432753596
-0.0432660959914805	-0.0432660959914805	-0.0432660959914805	-0.0432660959914805	-0.0432660959914805	-0.0432660959914805
-0.0425815303243381	-0.0425815303243381	-0.0425815303243381	-0.0425815303243381	-0.0425815303243381	-0.0425815303243381
-0.0418465891053304	-0.0418465891053304	-0.0418465891053304	-0.0418465891053304	-0.0418465891053304	-0.0418465891053304
-0.0410689616572715	-0.0410689616572715	-0.0410689616572715	-0.0410689616572715	-0.0410689616572715	-0.0410689616572715
-0.0402557837943917	-0.0402557837943917	-0.0402557837943917	-0.0402557837943917	-0.0402557837943917	-0.0402557837943917
-0.0394136378223372	-0.0394136378223372	-0.0394136378223372	-0.0394136378223372	-0.0394136378223372	-0.0394136378223372
-0.0385485525381707	-0.0385485525381707	-0.0385485525381707	-0.0385485525381707	-0.0385485525381707	-0.0385485525381707
-0.0376660032303708	-0.0376660032303708	-0.0376660032303708	-0.0376660032303708	-0.0376660032303708	-0.0376660032303708
-0.0367709116788325	-0.0367709116788325	-0.0367709116788325	-0.0367709116788325	-0.0367709116788325	-0.0367709116788325
-0.0358676461548667	-0.0358676461548667	-0.0358676461548667	-0.0358676461548667	-0.0358676461548667	-0.0358676461548667
-0.0349600214212005	-0.0349600214212005	-0.0349600214212005	-0.0349600214212005	-0.0349600214212005	-0.0349600214212005
-0.0340512987319772	-0.0340512987319772	-0.0340512987319772	-0.0340512987319772	-0.0340512987319772	-0.0340512987319772
-0.0331441858327564	-0.0331441858327564	-0.0331441858327564	-0.0331441858327564	-0.0331441858327564	-0.0331441858327564
-0.0322408369605135	-0.0322408369605135	-0.0322408369605135	-0.0322408369605135	-0.0322408369605135	-0.0322408369605135
-0.031341787464529	-0.031341787464529	-0.031341787464529	-0.031341787464529	-0.031341787464529	-0.031341787464529
-0.0304413381883678	-0.0304413381883678	-0.0304413381883678	-0.0304413381883678	-0.0304413381883678	-0.0304413381883678
-0.029539648761738	-0.029539648761738	-0.029539648761738	-0.029539648761738	-0.029539648761738	-0.029539648761738
-0.0286380259797337	-0.0286380259797337	-0.0286380259797337	-0.0286380259797337	-0.0286380259797337	-0.0286380259797337
-0.0277376105583703	-0.0277376105583703	-0.0277376105583703	-0.0277376105583703	-0.0277376105583703	-0.0277376105583703
-0.0268393771345838	-0.0268393771345838	-0.0268393771345838	-0.0268393771345838	-0.0268393771345838	-0.0268393771345838
-0.0259441342662321	-0.0259441342662321	-0.0259441342662321	-0.0259441342662321	-0.0259441342662321	-0.0259441342662321
-0.0250525244320938	-0.0250525244320938	-0.0250525244320938	-0.0250525244320938	-0.0250525244320938	-0.0250525244320938
-0.0241650240318687	-0.0241650240318687	-0.0241650240318687	-0.0241650240318687	-0.0241650240318687	-0.0241650240318687
-0.023281943386178	-0.023281943386178	-0.023281943386178	-0.023281943386178	-0.023281943386178	-0.023281943386178
-0.0224034267365638	-0.0224034267365638	-0.0224034267365638	-0.0224034267365638	-0.0224034267365638	-0.0224034267365638
-0.0215294522454896	-0.0215294522454896	-0.0215294522454896	-0.0215294522454896	-0.0215294522454896	-0.0215294522454896
-0.0206598319963398	-0.0206598319963398	-0.0206598319963398	-0.0206598319963398	-0.0206598319963398	-0.0206598319963398
-0.0197942119934202	-0.0197942119934202	-0.0197942119934202	-0.0197942119934202	-0.0197942119934202	-0.0197942119934202
-0.0189320721619577	-0.0189320721619577	-0.0189320721619577	-0.0189320721619577	-0.0189320721619577	-0.0189320721619577
-0.0180727263481004	-0.0180727263481004	-0.0180727263481004	-0.0180727263481004	-0.0180727263481004	-0.0180727263481004
-0.0172153223189174	-0.0172153223189174	-0.0172153223189174	-0.0172153223189174	-0.0172153223189174	-0.0172153223189174
-0.0163588417623991	-0.0163588417623991	-0.0163588417623991	-0.0163588417623991	-0.0163588417623991	-0.0163588417623991
-0.0155021002874572	-0.0155021002874572	-0.0155021002874572	-0.0155021002874572	-0.0155021002874572	-0.0155021002874572
-0.0146437474239242	-0.0146437474239242	-0.0146437474239242	-0.0146437474239242	-0.0146437474239242	-0.0146437474239242
-0.0137822666225542	-0.0137822666225542	-0.0137822666225542	-0.0137822666225542	-0.0137822666225542	-0.0137822666225542
-0.0129159752550221	-0.0129159752550221	-0.0129159752550221	-0.0129159752550221	-0.0129159752550221	-0.0129159752550221
-0.0120430246139243	-0.0120430246139243	-0.0120430246139243	-0.0120430246139243	-0.0120430246139243	-0.0120430246139243
-0.011161399912778	-0.011161399912778	-0.011161399912778	-0.011161399912778	-0.011161399912778	-0.011161399912778
-0.0102689202860219	-0.0102689202860219	-0.0102689202860219	-0.0102689202860219	-0.0102689202860219	-0.0102689202860219
-0.00936323878901552	-0.00936323878901552	-0.00936323878901552	-0.00936323878901552	-0.00936323878901552	-0.00936323878901552
-0.00844184239803997	-0.00844184239803997	-0.00844184239803997	-0.00844184239803997	-0.00844184239803997	-0.00844184239803997
-0.00750192591564608	-0.00750192591564608	-0.00750192591564608	-0.00750192591564608	-0.00750192591564608	-0.00750192591564608
-0.00652508648475242	-0.00652508648475242	-0.00652508648475242	-0.00652508648475242	-0.00652508648475242	-0.00652508648475242
-0.00549813226249618	-0.00549813226249618	-0.00549813226249618	-0.00549813226249618	-0.00549813226249618	-0.00549813226249618
-0.00441265082325293	-0.00441265082325293	-0.00441265082325293	-0.00441265082325293	-0.00441265082325293	-0.00441265082325293
-0.00325220981719848	-0.00325220981719848	-0.00325220981719848	-0.00325220981719848	-0.00325220981719848	-0.00325220981719848
-0.00199235697030947	-0.00199235697030947	-0.00199235697030947	-0.00199235697030947	-0.00199235697030947	-0.00199235697030947
-0.000600620084362957	-0.000600620084362957	-0.000600620084362957	-0.000600620084362957	-0.000600620084362957	-0.000600620084362957
0.000963492963063528	0.000963492963063528	0.000963492963063528	0.000963492963063528	0.000963492963063528	0.000963492963063528
0.00274849421859152	0.00274849421859152	0.00274849421859152	0.00274849421859152	0.00274849421859152	0.00274849421859152
0.00481091565304242	0.00481091565304242	0.00481091565304242	0.00481091565304242	0.00481091565304242	0.00481091565304242
0.00721530916143681	0.00721530916143681	0.00721530916143681	0.00721530916143681	0.00721530916143681	0.00721530916143681
0.0100342465629947	0.0100342465629947	0.0100342465629947	0.0100342465629947	0.0100342465629947	0.0100342465629947
0.0133483196011357	0.0133483196011357	0.0133483196011357	0.0133483196011357	0.0133483196011357	0.0133483196011357
0.0172461399434788	0.0172461399434788	0.0172461399434788	0.0172461399434788	0.0172461399434788	0.0172461399434788
0.0218212569602143	0.0218212569602143	0.0218212569602143	0.0218212569602143	0.0218212569602143	0.0218212569602143
0.0271052413922496	0.0271052413922496	0.0271052413922496	0.0271052413922496	0.0271052413922496	0.0271052413922496
0.0332297026248788	0.0332297026248788	0.0332297026248788	0.0332297026248788	0.0332297026248788	0.0332297026248788
0.0403460646179483	0.0403460646179483	0.0403460646179483	0.0403460646179483	0.0403460646179483	0.0403460646179483
0.0485683291049002	0.0485683291049002	0.0485683291049002	0.0485683291049002	0.0485683291049002	0.0485683291049002
0.057973075592772	0.057973075592772	0.057973075592772	0.057973075592772	0.057973075592772	0.057973075592772
0.0685994613621972	0.0685994613621972	0.0685994613621972	0.0685994613621972	0.0685994613621972	0.0685994613621972
0.0804492214674047	0.0804492214674047	0.0804492214674047	0.0804492214674047	0.0804492214674047	0.0804492214674047
0.0934866687362191	0.0934866687362191	0.0934866687362191	0.0934866687362191	0.0934866687362191	0.0934866687362191
0.10763869377006	0.10763869377006	0.10763869377006	0.10763869377006	0.10763869377006	0.10763869377006
0.122794764943945	0.122794764943945	0.122794764943945	0.122794764943945	0.122794764943945	0.122794764943945
0.138806928406483	0.138806928406483	0.138806928406483	0.138806928406483	0.138806928406483	0.138806928406483
0.155489808079883	0.155489808079883	0.155489808079883	0.155489808079883	0.155489808079883	0.155489808079883
0.172620605659947	0.172620605659947	0.172620605659947	0.172620605659947	0.172620605659947	0.172620605659947
0.189947995904437	0.189947995904437	0.189947995904437	0.189947995904437	0.189947995904437	0.189947995904437
0.207239797740775	0.207239797740775	0.207239797740775	0.207239797740775	0.207239797740775	0.207239797740775
0.224051703520643	0.224051703520643	0.224051703520643	0.224051703520643	0.224051703520643	0.224051703520643
0.239930460761166	0.239930460761166	0.239930460761166	0.239930460761166	0.239930460761166	0.239930460761166
0.254473340130404	0.254473340130404	0.254473340130404	0.254473340130404	0.254473340130404	0.254473340130404
0.267328135447357	0.267328135447357	0.267328135447357	0.267328135447357	0.267328135447357	0.267328135447357
0.278193163681961	0.278193163681961	0.278193163681961	0.278193163681961	0.278193163681961	0.278193163681961
0.286817264955092	0.286817264955092	0.286817264955092	0.286817264955092	0.286817264955092	0.286817264955092
0.292999802538562	0.292999802538562	0.292999802538562	0.292999802538562	0.292999802538562	0.292999802538562
0.296590662855121	0.296590662855121	0.296590662855121	0.296590662855121	0.296590662855121	0.296590662855121
0.297490255478459	0.297490255478459	0.297490255478459	0.297490255478459	0.297490255478459	0.297490255478459
0.295649513133201	0.295649513133201	0.295649513133201	0.295649513133201	0.295649513133201	0.295649513133201
0.291069891694912	0.291069891694912	0.291069891694912	0.291069891694912	0.291069891694912	0.291069891694912
0.283692341779687	0.283692341779687	0.283692341779687	0.283692341779687	0.283692341779687	0.283692341779687
0.27371207367829	0.27371207367829	0.27371207367829	0.27371207367829	0.27371207367829	0.27371207367829
0.261601462552929	0.261601462552929	0.261601462552929	0.261601462552929	0.261601462552929	0.261601462552929
0.24780347504465	0.24780347504465	0.24780347504465	0.24780347504465	0.24780347504465	0.24780347504465
0.232730809148569	0.232730809148569	0.232730809148569	0.232730809148569	0.232730809148569	0.232730809148569
0.216765894213865	0.216765894213865	0.216765894213865	0.216765894213865	0.216765894213865	0.216765894213865
0.200260890943786	0.200260890943786	0.200260890943786	0.200260890943786	0.200260890943786	0.200260890943786
0.183537691395646	0.183537691395646	0.183537691395646	0.183537691395646	0.183537691395646	0.183537691395646
0.166887918980825	0.166887918980825	0.166887918980825	0.166887918980825	0.166887918980825	0.166887918980825
0.15057292846477	0.15057292846477	0.15057292846477	0.15057292846477	0.15057292846477	0.15057292846477
0.134823805966995	0.134823805966995	0.134823805966995	0.134823805966995	0.134823805966995	0.134823805966995
0.119841368961081	0.119841368961081	0.119841368961081	0.119841368961081	0.119841368961081	0.119841368961081
0.105796166274675	0.105796166274675	0.105796166274675	0.105796166274675	0.105796166274675	0.105796166274675
0.0928284780894909	0.0928284780894909	0.0928284780894909	0.0928284780894909	0.0928284780894909	0.0928284780894909
0.0810483159413093	0.0810483159413093	0.0810483159413093	0.0810483159413093	0.0810483159413093	0.0810483159413093
0.0705354227199773	0.0705354227199773	0.0705354227199773	0.0705354227199773	0.0705354227199773	0.0705354227199773
0.0613392726694083	0.0613392726694083	0.0613392726694083	0.0613392726694083	0.0613392726694083	0.0613392726694083
0.0534235558628535	0.0534235558628535	0.0534235558628535	0.0534235558628535	0.0534235558628535	0.0534235558628535
0.0466832658278997	0.0466832658278997	0.0466832658278997	0.0466832658278997	0.0466832658278997	0.0466832658278997
0.0410354670947365	0.0410354670947365	0.0410354670947365	0.0410354670947365	0.0410354670947365	0.0410354670947365
0.036358431285982	0.036358431285982	0.036358431285982	0.036358431285982	0.036358431285982	0.036358431285982
0.0324913602012998	0.0324913602012998	0.0324913602012998	0.0324913602012998	0.0324913602012998	0.0324913602012998
0.0292343858173988	0.0292343858173988	0.0292343858173988	0.0292343858173988	0.0292343858173988	0.0292343858173988
0.0263407467069744	0.0263407467069744	0.0263407467069744	0.0263407467069744	0.0263407467069744	0.0263407467069744
0.0233619243514603	0.0233619243514603	0.0233619243514603	0.0233619243514603	0.0233619243514603	0.0233619243514603
0.0196412869460742	0.0196412869460742	0.0196412869460742	0.0196412869460742	0.0196412869460742	0.0196412869460742
0.0143880106316142	0.0143880106316142	0.0143880106316142	0.0143880106316142	0.0143880106316142	0.0143880106316142
0.00667776185660984	0.00667776185660984	0.00667776185660984	0.00667776185660984	0.00667776185660984	0.00667776185660984
-0.00454730262267677	-0.00454730262267677	-0.00454730262267677	-0.00454730262267677	-0.00454730262267677	-0.00454730262267677
-0.0203483450395709	-0.0203483450395709	-0.0203483450395709	-0.0203483450395709	-0.0203483450395709	-0.0203483450395709
-0.0409365025426462	-0.0409365025426462	-0.0409365025426462	-0.0409365025426462	-0.0409365025426462	-0.0409365025426462
-0.065337744329198	-0.065337744329198	-0.065337744329198	-0.065337744329198	-0.065337744329198	-0.065337744329198
-0.0913302899033987	-0.0913302899033987	-0.0913302899033987	-0.0913302899033987	-0.0913302899033987	-0.0913302899033987
-0.115439325095666	-0.115439325095666	-0.115439325095666	-0.115439325095666	-0.115439325095666	-0.115439325095666
-0.132937002062662	-0.132937002062662	-0.132937002062662	-0.132937002062662	-0.132937002062662	-0.132937002062662
-0.137842439287294	-0.137842439287294	-0.137842439287294	-0.137842439287294	-0.137842439287294	-0.137842439287294
-0.12391196349285	-0.12391196349285	-0.12391196349285	-0.12391196349285	-0.12391196349285	-0.12391196349285
-0.0853480168293445	-0.0853480168293445	-0.0853480168293445	-0.0853480168293445	-0.0853480168293445	-0.0853480168293445
-0.0158846355263711	-0.0158846355263711	-0.0158846355263711	-0.0158846355263711	-0.0158846355263711	-0.0158846355263711
0.0872767591280933	0.0872767591280933	0.0872767591280933	0.0872767591280933	0.0872767591280933	0.0872767591280933
0.223316172833468	0.223316172833468	0.223316172833468	0.223316172833468	0.223316172833468	0.223316172833468
0.387795038276567	0.387795038276567	0.387795038276567	0.387795038276567	0.387795038276567	0.387795038276567
0.572870713863983	0.572870713863983	0.572870713863983	0.572870713863983	0.572870713863983	0.572870713863983
0.766863473794738	0.766863473794738	0.766863473794738	0.766863473794738	0.766863473794738	0.766863473794738
0.942285116065616	0.942285116065616	0.942285116065616	0.942285116065616	0.942285116065616	0.942285116065616
1.07441721261345	1.07441721261345	1.07441721261345	1.07441721261345	1.07441721261345	1.07441721261345
1.14632267824987	1.14632267824987	1.14632267824987	1.14632267824987	1.14632267824987	1.14632267824987
1.14884577066133	1.14884577066133	1.14884577066133	1.14884577066133	1.14884577066133	1.14884577066133
1.08061209040907	1.08061209040907	1.08061209040907	1.08061209040907	1.08061209040907	1.08061209040907
0.948024921804558	0.948024921804558	0.948024921804558	0.948024921804558	0.948024921804558	0.948024921804558
0.768060356915815	0.768060356915815	0.768060356915815	0.768060356915815	0.768060356915815	0.768060356915815
0.566110006854609	0.566110006854609	0.566110006854609	0.566110006854609	0.566110006854609	0.566110006854609
0.363919349174502	0.363919349174502	0.363919349174502	0.363919349174502	0.363919349174502	0.363919349174502
0.178291304203753	0.178291304203753	0.178291304203753	0.178291304203753	0.178291304203753	0.178291304203753
0.0210862350453139	0.0210862350453139	0.0210862350453139	0.0210862350453139	0.0210862350453139	0.0210862350453139
-0.100778052423163	-0.100778052423163	-0.100778052423163	-0.100778052423163	-0.100778052423163	-0.100778052423163
-0.184992745010045	-0.184992745010045	-0.184992745010045	-0.184992745010045	-0.184992745010045	-0.184992745010045
-0.2290986290427	-0.2290986290427	-0.2290986290427	-0.2290986290427	-0.2290986290427	-0.2290986290427
-0.240287064900406	-0.240287064900406	-0.240287064900406	-0.240287064900406	-0.240287064900406	-0.240287064900406
-0.227903543442232	-0.227903543442232	-0.227903543442232	-0.227903543442232	-0.227903543442232	-0.227903543442232
-0.200047803709056	-0.200047803709056	-0.200047803709056	-0.200047803709056	-0.200047803709056	-0.200047803709056
-0.163573832923574	-0.163573832923574	-0.163573832923574	-0.163573832923574	-0.163573832923574	-0.163573832923574
-0.124089866490299	-0.124089866490299	-0.124089866490299	-0.124089866490299	-0.124089866490299	-0.124089866490299
-0.0859583879955552	-0.0859583879955552	-0.0859583879955552	-0.0859583879955552	-0.0859583879955552	-0.0859583879955552
-0.0522961292074839	-0.0522961292074839	-0.0522961292074839	-0.0522961292074839	-0.0522961292074839	-0.0522961292074839
-0.0249740700760412	-0.0249740700760412	-0.0249740700760412	-0.0249740700760412	-0.0249740700760412	-0.0249740700760412
-0.00461743873299814	-0.00461743873299814	-0.00461743873299814	-0.00461743873299814	-0.00461743873299814	-0.00461743873299814
0.0093942885080594	0.0093942885080594	0.0093942885080594	0.0093942885080594	0.0093942885080594	0.0093942885080594
0.0188923672493323	0.0188923672493323	0.0188923672493323	0.0188923672493323	0.0188923672493323	0.0188923672493323
0.025577852609534	0.025577852609534	0.025577852609534	0.025577852609534	0.025577852609534	0.025577852609534
0.0302503389215792	0.0302503389215792	0.0302503389215792	0.0302503389215792	0.0302503389215792	0.0302503389215792
0.0335782473684498	0.0335782473684498	0.0335782473684498	0.0335782473684498	0.0335782473684498	0.0335782473684498
0.0361297205134186	0.0361297205134186	0.0361297205134186	0.0361297205134186	0.0361297205134186	0.0361297205134186
0.0383726223000488	0.0383726223000488	0.0383726223000488	0.0383726223000488	0.0383726223000488	0.0383726223000488
0.0406745380521943	0.0406745380521943	0.0406745380521943	0.0406745380521943	0.0406745380521943	0.0406745380521943
0.0433027744740003	0.0433027744740003	0.0433027744740003	0.0433027744740003	0.0433027744740003	0.0433027744740003
0.0464243596499018	0.0464243596499018	0.0464243596499018	0.0464243596499018	0.0464243596499018	0.0464243596499018
0.0501060430446253	0.0501060430446253	0.0501060430446253	0.0501060430446253	0.0501060430446253	0.0501060430446253
0.0543142955031872	0.0543142955031872	0.0543142955031872	0.0543142955031872	0.0543142955031872	0.0543142955031872
0.0589153092508954	0.0589153092508954	0.0589153092508954	0.0589153092508954	0.0589153092508954	0.0589153092508954
0.0638033772604636	0.0638033772604636	0.0638033772604636	0.0638033772604636	0.0638033772604636	0.0638033772604636
0.0691734866695356	0.0691734866695356	0.0691734866695356	0.0691734866695356	0.0691734866695356	0.0691734866695356
0.0750815963437587	0.0750815963437587	0.0750815963437587	0.0750815963437587	0.0750815963437587	0.0750815963437587
0.0815683029192222	0.0815683029192222	0.0815683029192222	0.0815683029192222	0.0815683029192222	0.0815683029192222
0.0886693566052367	0.0886693566052367	0.0886693566052367	0.0886693566052367	0.0886693566052367	0.0886693566052367
0.0964156611843341	0.0964156611843341	0.0964156611843341	0.0964156611843341	0.0964156611843341	0.0964156611843341
0.104833274012267	0.104833274012267	0.104833274012267	0.104833274012267	0.104833274012267	0.104833274012267
0.113943406018012	0.113943406018012	0.113943406018012	0.113943406018012	0.113943406018012	0.113943406018012
0.123762421703762	0.123762421703762	0.123762421703762	0.123762421703762	0.123762421703762	0.123762421703762
0.134301839144937	0.134301839144937	0.134301839144937	0.134301839144937	0.134301839144937	0.134301839144937
0.145568329990173	0.145568329990173	0.145568329990173	0.145568329990173	0.145568329990173	0.145568329990173
0.157563719461332	0.157563719461332	0.157563719461332	0.157563719461332	0.157563719461332	0.157563719461332
0.170306498097198	0.170306498097198	0.170306498097198	0.170306498097198	0.170306498097198	0.170306498097198
0.183799104351354	0.183799104351354	0.183799104351354	0.183799104351354	0.183799104351354	0.183799104351354
0.197977041876428	0.197977041876428	0.197977041876428	0.197977041876428	0.197977041876428	0.197977041876428
0.212769383849507	0.212769383849507	0.212769383849507	0.212769383849507	0.212769383849507	0.212769383849507
0.228099892833629	0.228099892833629	0.228099892833629	0.228099892833629	0.228099892833629	0.228099892833629
0.243887020777781	0.243887020777781	0.243887020777781	0.243887020777781	0.243887020777781	0.243887020777781
0.260043909016903	0.260043909016903	0.260043909016903	0.260043909016903	0.260043909016903	0.260043909016903
0.276478388271883	0.276478388271883	0.276478388271883	0.276478388271883	0.276478388271883	0.276478388271883
0.293092978649559	0.293092978649559	0.293092978649559	0.293092978649559	0.293092978649559	0.293092978649559
0.309784889642722	0.309784889642722	0.309784889642722	0.309784889642722	0.309784889642722	0.309784889642722
0.326446020130109	0.326446020130109	0.326446020130109	0.326446020130109	0.326446020130109	0.326446020130109
0.342962958376411	0.342962958376411	0.342962958376411	0.342962958376411	0.342962958376411	0.342962958376411
0.359216982032267	0.359216982032267	0.359216982032267	0.359216982032267	0.359216982032267	0.359216982032267
0.375084058134267	0.375084058134267	0.375084058134267	0.375084058134267	0.375084058134267	0.375084058134267
0.390434843104952	0.390434843104952	0.390434843104952	0.390434843104952	0.390434843104952	0.390434843104952
0.405134682752811	0.405134682752811	0.405134682752811	0.405134682752811	0.405134682752811	0.405134682752811
0.419043612272287	0.419043612272287	0.419043612272287	0.419043612272287	0.419043612272287	0.419043612272287
0.432016356243768	0.432016356243768	0.432016356243768	0.432016356243768	0.432016356243768	0.432016356243768
0.443902328633596	0.443902328633596	0.443902328633596	0.443902328633596	0.443902328633596	0.443902328633596
0.454545632794064	0.454545632794064	0.454545632794064	0.454545632794064	0.454545632794064	0.454545632794064
0.463785061463411	0.463785061463411	0.463785061463411	0.463785061463411	0.463785061463411	0.463785061463411
0.471477316833719	0.471477316833719	0.471477316833719	0.471477316833719	0.471477316833719	0.471477316833719
0.477589848324214	0.477589848324214	0.477589848324214	0.477589848324214	0.477589848324214	0.477589848324214
0.482071361265245	0.482071361265245	0.482071361265245	0.482071361265245	0.482071361265245	0.482071361265245
0.484878792912273	0.484878792912273	0.484878792912273	0.484878792912273	0.484878792912273	0.484878792912273
0.485984586401774	0.485984586401774	0.485984586401774	0.485984586401774	0.485984586401774	0.485984586401774
0.485376690751239	0.485376690751239	0.485376690751239	0.485376690751239	0.485376690751239	0.485376690751239
0.483058560859178	0.483058560859178	0.483058560859178	0.483058560859178	0.483058560859178	0.483058560859178
0.479049157505118	0.479049157505118	0.479049157505118	0.479049157505118	0.479049157505118	0.479049157505118
0.4733829473496	0.4733829473496	0.4733829473496	0.4733829473496	0.4733829473496	0.4733829473496
0.466109902934184	0.466109902934184	0.466109902934184	0.466109902934184	0.466109902934184	0.466109902934184
0.457295502681445	0.457295502681445	0.457295502681445	0.457295502681445	0.457295502681445	0.457295502681445
0.447020730894977	0.447020730894977	0.447020730894977	0.447020730894977	0.447020730894977	0.447020730894977
0.435382077759388	0.435382077759388	0.435382077759388	0.435382077759388	0.435382077759388	0.435382077759388
0.422491539340304	0.422491539340304	0.422491539340304	0.422491539340304	0.422491539340304	0.422491539340304
0.408476617584367	0.408476617584367	0.408476617584367	0.408476617584367	0.408476617584367	0.408476617584367
0.393480320319237	0.393480320319237	0.393480320319237	0.393480320319237	0.393480320319237	0.393480320319237
0.377661161253589	0.377661161253589	0.377661161253589	0.377661161253589	0.377661161253589	0.377661161253589
0.361193159977117	0.361193159977117	0.361193159977117	0.361193159977117	0.361193159977117	0.361193159977117
0.344265841960527	0.344265841960527	0.344265841960527	0.344265841960527	0.344265841960527	0.344265841960527
0.327014354352091	0.327014354352091	0.327014354352091	0.327014354352091	0.327014354352091	0.327014354352091
0.309537132195272	0.309537132195272	0.309537132195272	0.309537132195272	0.309537132195272	0.309537132195272
0.291984920481706	0.291984920481706	0.291984920481706	0.291984920481706	0.291984920481706	0.291984920481706
0.274496763117461	0.274496763117461	0.274496763117461	0.274496763117461	0.274496763117461	0.274496763117461
0.25719992132843	0.25719992132843	0.25719992132843	0.25719992132843	0.25719992132843	0.25719992132843
0.24020987366033	0.24020987366033	0.24020987366033	0.24020987366033	0.24020987366033	0.24020987366033
0.223630315978705	0.223630315978705	0.223630315978705	0.223630315978705	0.223630315978705	0.223630315978705
0.207553161468922	0.207553161468922	0.207553161468922	0.207553161468922	0.207553161468922	0.207553161468922
0.192058540636176	0.192058540636176	0.192058540636176	0.192058540636176	0.192058540636176	0.192058540636176
0.177214801305484	0.177214801305484	0.177214801305484	0.177214801305484	0.177214801305484	0.177214801305484
0.163078508621688	0.163078508621688	0.163078508621688	0.163078508621688	0.163078508621688	0.163078508621688
0.149694445049458	0.149694445049458	0.149694445049458	0.149694445049458	0.149694445049458	0.149694445049458
0.137095610373286	0.137095610373286	0.137095610373286	0.137095610373286	0.137095610373286	0.137095610373286
0.125303221697491	0.125303221697491	0.125303221697491	0.125303221697491	0.125303221697491	0.125303221697491
0.114326713446216	0.114326713446216	0.114326713446216	0.114326713446216	0.114326713446216	0.114326713446216
0.104163737363428	0.104163737363428	0.104163737363428	0.104163737363428	0.104163737363428	0.104163737363428
0.0948001652727031	0.0948001652727031	0.0948001652727031	0.0948001652727031	0.0948001652727031	0.0948001652727031
0.0862380393522691	0.0862380393522691	0.0862380393522691	0.0862380393522691	0.0862380393522691	0.0862380393522691
0.078464653121311	0.078464653121311	0.078464653121311	0.078464653121311	0.078464653121311	0.078464653121311
0.0714371662160201	0.0714371662160201	0.0714371662160201	0.0714371662160201	0.0714371662160201	0.0714371662160201
0.0651134954140953	0.0651134954140953	0.0651134954140953	0.0651134954140953	0.0651134954140953	0.0651134954140953
0.0594523146347422	0.0594523146347422	0.0594523146347422	0.0594523146347422	0.0594523146347422	0.0594523146347422
0.0544130549386732	0.0544130549386732	0.0544130549386732	0.0544130549386732	0.0544130549386732	0.0544130549386732
0.0499559045281076	0.0499559045281076	0.0499559045281076	0.0499559045281076	0.0499559045281076	0.0499559045281076
0.0460418087467719	0.0460418087467719	0.0460418087467719	0.0460418087467719	0.0460418087467719	0.0460418087467719
0.042632470079899	0.042632470079899	0.042632470079899	0.042632470079899	0.042632470079899	0.042632470079899
0.0396903481542294	0.0396903481542294	0.0396903481542294	0.0396903481542294	0.0396903481542294	0.0396903481542294
0.0371786597380097	0.0371786597380097	0.0371786597380097	0.0371786597380097	0.0371786597380097	0.0371786597380097
0.035061378740994	0.035061378740994	0.035061378740994	0.035061378740994	0.035061378740994	0.035061378740994
0.0333032362144431	0.0333032362144431	0.0333032362144431	0.0333032362144431	0.0333032362144431	0.0333032362144431
0.0318697203511246	0.0318697203511246	0.0318697203511246	0.0318697203511246	0.0318697203511246	0.0318697203511246
0.0307270764853132	0.0307270764853132	0.0307270764853132	0.0307270764853132	0.0307270764853132	0.0307270764853132
0.0298423070927905	0.0298423070927905	0.0298423070927905	0.0298423070927905	0.0298423070927905	0.0298423070927905
0.0291831717908447	0.0291831717908447	0.0291831717908447	0.0291831717908447	0.0291831717908447	0.0291831717908447
0.0287181873382713	0.0287181873382713	0.0287181873382713	0.0287181873382713	0.0287181873382713	0.0287181873382713
0.0284166276353724	0.0284166276353724	0.0284166276353724	0.0284166276353724	0.0284166276353724	0.0284166276353724
0.0282491120621629	0.0282491120621629	0.0282491120621629	0.0282491120621629	0.0282491120621629	0.0282491120621629
0.0281963588121356	0.0281963588121356	0.0281963588121356	0.0281963588121356	0.0281963588121356	0.0281963588121356
0.0282468512556682	0.0282468512556682	0.0282468512556682	0.0282468512556682	0.0282468512556682	0.0282468512556682
0.0283897576614546	0.0283897576614546	0.0283897576614546	0.0283897576614546	0.0283897576614546	0.0283897576614546
0.0286147821728092	0.0286147821728092	0.0286147821728092	0.0286147821728092	0.0286147821728092	0.0286147821728092
0.0289121648076663	0.0289121648076663	0.0289121648076663	0.0289121648076663	0.0289121648076663	0.0289121648076663
0.0292726814585803	0.0292726814585803	0.0292726814585803	0.0292726814585803	0.0292726814585803	0.0292726814585803
0.0296876438927262	0.0296876438927262	0.0296876438927262	0.0296876438927262	0.0296876438927262	0.0296876438927262
0.0301488997518988	0.0301488997518988	0.0301488997518988	0.0301488997518988	0.0301488997518988	0.0301488997518988
0.0306488325525135	0.0306488325525135	0.0306488325525135	0.0306488325525135	0.0306488325525135	0.0306488325525135
0.0311803616856057	0.0311803616856057	0.0311803616856057	0.0311803616856057	0.0311803616856057	0.0311803616856057
0.0317369424168311	0.0317369424168311	0.0317369424168311	0.0317369424168311	0.0317369424168311	0.0317369424168311
0.0323125658864655	0.0323125658864655	0.0323125658864655	0.0323125658864655	0.0323125658864655	0.0323125658864655
0.032901759109405	0.032901759109405	0.032901759109405	0.032901759109405	0.032901759109405	0.032901759109405
0.0334995849751658	0.0334995849751658	0.0334995849751658	0.0334995849751658	0.0334995849751658	0.0334995849751658
0.0341016422478844	0.0341016422478844	0.0341016422478844	0.0341016422478844	0.0341016422478844	0.0341016422478844
0.0347040655663178	0.0347040655663178	0.0347040655663178	0.0347040655663178	0.0347040655663178	0.0347040655663178
0.0353035254438425	0.0353035254438425	0.0353035254438425	0.0353035254438425	0.0353035254438425	0.0353035254438425
0.0358972282684559	0.0358972282684559	0.0358972282684559	0.0358972282684559	0.0358972282684559	0.0358972282684559
0.0364829167356885	0.0364829167356885	0.0364829167356885	0.0364829167356885	0.0364829167356885	0.0364829167356885
0.037063731539588	0.037063731539588	0.037063731539588	0.037063731539588	0.037063731539588	0.037063731539588
0.0376430339864599	0.0376430339864599	0.0376430339864599	0.0376430339864599	0.0376430339864599	0.0376430339864599
0.0382196749855846	0.0382196749855846	0.0382196749855846	0.0382196749855846	0.0382196749855846	0.0382196749855846
0.0387926454860053	0.0387926454860053	0.0387926454860053	0.0387926454860053	0.0387926454860053	0.0387926454860053
0.0393610764765269	0.0393610764765269	0.0393610764765269	0.0393610764765269	0.0393610764765269	0.0393610764765269
0.039924238985717	0.039924238985717	0.039924238985717	0.039924238985717	0.039924238985717	0.039924238985717
0.0404815440819051	0.0404815440819051	0.0404815440819051	0.0404815440819051	0.0404815440819051	0.0404815440819051
0.0410325428731831	0.0410325428731831	0.0410325428731831	0.0410325428731831	0.0410325428731831	0.0410325428731831
0.0415769265074051	0.0415769265074051	0.0415769265074051	0.0415769265074051	0.0415769265074051	0.0415769265074051
0.0421145261721875	0.0421145261721875	0.0421145261721875	0.0421145261721875	0.0421145261721875	0.0421145261721875
0.042645313094909	0.042645313094909	0.042645313094909	0.042645313094909	0.042645313094909	0.042645313094909
0.0431693985427102	0.0431693985427102	0.0431693985427102	0.0431693985427102	0.0431693985427102	0.0431693985427102
0.0436870338224944	0.0436870338224944	0.0436870338224944	0.0436870338224944	0.0436870338224944	0.0436870338224944
0.0441986102809269	0.0441986102809269	0.0441986102809269	0.0441986102809269	0.0441986102809269	0.0441986102809269
0.0447046593044353	0.0447046593044353	0.0447046593044353	0.0447046593044353	0.0447046593044353	0.0447046593044353
0.0452058523192093	0.0452058523192093	0.0452058523192093	0.0452058523192093	0.0452058523192093	0.0452058523192093
0.0457030007912011	0.0457030007912011	0.0457030007912011	0.0457030007912011	0.0457030007912011	0.0457030007912011
0.0461970562261249	0.0461970562261249	0.0461970562261249	0.0461970562261249	0.0461970562261249	0.0461970562261249
0.0466891101694573	0.0466891101694573	0.0466891101694573	0.0466891101694573	0.0466891101694573	0.0466891101694573
0.0471803942064372	0.0471803942064372	0.0471803942064372	0.0471803942064372	0.0471803942064372	0.0471803942064372
0.0476722799620655	0.0476722799620655	0.0476722799620655	0.0476722799620655	0.0476722799620655	0.0476722799620655
0.0481662791011054	0.0481662791011054	0.0481662791011054	0.0481662791011054	0.0481662791011054	0.0481662791011054
0.0486640433280827	0.0486640433280827	0.0486640433280827	0.0486640433280827	0.0486640433280827	0.0486640433280827
0.049167364387285	0.049167364387285	0.049167364387285	0.049167364387285	0.049167364387285	0.049167364387285
0.0496781740627624	0.0496781740627624	0.0496781740627624	0.0496781740627624	0.0496781740627624	0.0496781740627624
0.050198544178327	0.050198544178327	0.050198544178327	0.050198544178327	0.050198544178327	0.050198544178327
0.0507306865975534	0.0507306865975534	0.0507306865975534	0.0507306865975534	0.0507306865975534	0.0507306865975534
0.051285049259053	0.051285049259053	0.051285049259053	0.051285049259053	0.051285049259053	0.051285049259053
0.0518805724065048	0.0518805724065048	0.0518805724065048	0.0518805724065048	0.0518805724065048	0.0518805724065048
0.0525205911330366	0.0525205911330366	0.0525205911330366	0.0525205911330366	0.0525205911330366	0.0525205911330366
0.0532154086385894	0.0532154086385894	0.0532154086385894	0.0532154086385894	0.0532154086385894	0.0532154086385894
0.0539831777870937	0.0539831777870937	0.0539831777870937	0.0539831777870937	0.0539831777870937	0.0539831777870937
0.0548499011064701	0.0548499011064701	0.0548499011064701	0.0548499011064701	0.0548499011064701	0.0548499011064701
0.0558494307886294	0.0558494307886294	0.0558494307886294	0.0558494307886294	0.0558494307886294	0.0558494307886294
0.0570234686894722	0.0570234686894722	0.0570234686894722	0.0570234686894722	0.0570234686894722	0.0570234686894722
0.0584215663288888	0.0584215663288888	0.0584215663288888	0.0584215663288888	0.0584215663288888	0.0584215663288888
0.0601011248907599	0.0601011248907599	0.0601011248907599	0.0601011248907599	0.0601011248907599	0.0601011248907599
0.062127395222956	0.062127395222956	0.062127395222956	0.062127395222956	0.062127395222956	0.062127395222956
0.0645734778373376	0.0645734778373376	0.0645734778373376	0.0645734778373376	0.0645734778373376	0.0645734778373376
0.0675203229097552	0.0675203229097552	0.0675203229097552	0.0675203229097552	0.0675203229097552	0.0675203229097552
0.0710567302800492	0.0710567302800492	0.0710567302800492	0.0710567302800492	0.0710567302800492	0.0710567302800492
0.0752749755910049	0.0752749755910049	0.0752749755910049	0.0752749755910049	0.0752749755910049	0.0752749755910049
0.0801980375697984	0.0801980375697984	0.0801980375697984	0.0801980375697984	0.0801980375697984	0.0801980375697984
0.0859616042250066	0.0859616042250066	0.0859616042250066	0.0859616042250066	0.0859616042250066	0.0859616042250066
0.0927201102478723	0.0927201102478723	0.0927201102478723	0.0927201102478723	0.0927201102478723	0.0927201102478723
0.100589397818537	0.100589397818537	0.100589397818537	0.100589397818537	0.100589397818537	0.100589397818537
0.109646716606041	0.109646716606041	0.109646716606041	0.109646716606041	0.109646716606041	0.109646716606041
0.119930723768322	0.119930723768322	0.119930723768322	0.119930723768322	0.119930723768322	0.119930723768322
0.131441483952217	0.131441483952217	0.131441483952217	0.131441483952217	0.131441483952217	0.131441483952217
0.144140469293462	0.144140469293462	0.144140469293462	0.144140469293462	0.144140469293462	0.144140469293462
0.15795055941669	0.15795055941669	0.15795055941669	0.15795055941669	0.15795055941669	0.15795055941669
0.172756041435435	0.172756041435435	0.172756041435435	0.172756041435435	0.172756041435435	0.172756041435435
0.188402609952126	0.188402609952126	0.188402609952126	0.188402609952126	0.188402609952126	0.188402609952126
0.204697367058094	0.204697367058094	0.204697367058094	0.204697367058094	0.204697367058094	0.204697367058094
0.221408822333566	0.221408822333566	0.221408822333566	0.221408822333566	0.221408822333566	0.221408822333566
0.238266892847669	0.238266892847669	0.238266892847669	0.238266892847669	0.238266892847669	0.238266892847669
0.255009376638006	0.255009376638006	0.255009376638006	0.255009376638006	0.255009376638006	0.255009376638006
0.271333958962025	0.271333958962025	0.271333958962025	0.271333958962025	0.271333958962025	0.271333958962025
0.286752658791971	0.286752658791971	0.286752658791971	0.286752658791971	0.286752658791971	0.286752658791971
0.300827202450369	0.300827202450369	0.300827202450369	0.300827202450369	0.300827202450369	0.300827202450369
0.313179716562474	0.313179716562474	0.313179716562474	0.313179716562474	0.313179716562474	0.313179716562474
0.323492728056268	0.323492728056268	0.323492728056268	0.323492728056268	0.323492728056268	0.323492728056268
0.331509164162462	0.331509164162462	0.331509164162462	0.331509164162462	0.331509164162462	0.331509164162462
0.337032352414494	0.337032352414494	0.337032352414494	0.337032352414494	0.337032352414494	0.337032352414494
0.339926020648531	0.339926020648531	0.339926020648531	0.339926020648531	0.339926020648531	0.339926020648531
0.340114297003468	0.340114297003468	0.340114297003468	0.340114297003468	0.340114297003468	0.340114297003468
0.33758170992093	0.33758170992093	0.33758170992093	0.33758170992093	0.33758170992093	0.33758170992093
0.332373188145267	0.332373188145267	0.332373188145267	0.332373188145267	0.332373188145267	0.332373188145267
0.32459406072356	0.32459406072356	0.32459406072356	0.32459406072356	0.32459406072356	0.32459406072356
0.314370743441512	0.314370743441512	0.314370743441512	0.314370743441512	0.314370743441512	0.314370743441512
0.301819883419981	0.301819883419981	0.301819883419981	0.301819883419981	0.301819883419981	0.301819883419981
0.287410442980254	0.287410442980254	0.287410442980254	0.287410442980254	0.287410442980254	0.287410442980254
0.271617967579243	0.271617967579243	0.271617967579243	0.271617967579243	0.271617967579243	0.271617967579243
0.254878788480316	0.254878788480316	0.254878788480316	0.254878788480316	0.254878788480316	0.254878788480316
0.237590022753295	0.237590022753295	0.237590022753295	0.237590022753295	0.237590022753295	0.237590022753295
0.220109573274459	0.220109573274459	0.220109573274459	0.220109573274459	0.220109573274459	0.220109573274459
0.202756128726543	0.202756128726543	0.202756128726543	0.202756128726543	0.202756128726543	0.202756128726543
0.185809163598734	0.185809163598734	0.185809163598734	0.185809163598734	0.185809163598734	0.185809163598734
0.169508938186677	0.169508938186677	0.169508938186677	0.169508938186677	0.169508938186677	0.169508938186677
0.154056498592473	0.154056498592473	0.154056498592473	0.154056498592473	0.154056498592473	0.154056498592473
0.139613676724675	0.139613676724675	0.139613676724675	0.139613676724675	0.139613676724675	0.139613676724675
0.126303090298294	0.126303090298294	0.126303090298294	0.126303090298294	0.126303090298294	0.126303090298294
0.114208142834796	0.114208142834796	0.114208142834796	0.114208142834796	0.114208142834796	0.114208142834796
0.103373023662102	0.103373023662102	0.103373023662102	0.103373023662102	0.103373023662102	0.103373023662102
0.0938027079145876	0.0938027079145876	0.0938027079145876	0.0938027079145876	0.0938027079145876	0.0938027079145876
0.0854629565330851	0.0854629565330851	0.0854629565330851	0.0854629565330851	0.0854629565330851	0.0854629565330851
0.07828031626488	0.07828031626488	0.07828031626488	0.07828031626488	0.07828031626488	0.07828031626488
0.0721274122219714	0.0721274122219714	0.0721274122219714	0.0721274122219714	0.0721274122219714	0.0721274122219714
0.0668549827193006	0.0668549827193006	0.0668549827193006	0.0668549827193006	0.0668549827193006	0.0668549827193006
0.0624405265163554	0.0624405265163554	0.0624405265163554	0.0624405265163554	0.0624405265163554	0.0624405265163554
0.058728616298475	0.058728616298475	0.058728616298475	0.058728616298475	0.058728616298475	0.058728616298475
0.0554002823839041	0.0554002823839041	0.0554002823839041	0.0554002823839041	0.0554002823839041	0.0554002823839041
0.0519730127237925	0.0519730127237925	0.0519730127237925	0.0519730127237925	0.0519730127237925	0.0519730127237925
0.047800752902195	0.047800752902195	0.047800752902195	0.047800752902195	0.047800752902195	0.047800752902195
0.0420739061360718	0.0420739061360718	0.0420739061360718	0.0420739061360718	0.0420739061360718	0.0420739061360718
0.0338197848078424	0.0338197848078424	0.0338197848078424	0.0338197848078424	0.0338197848078424	0.0338197848078424
0.0221642966233715	0.0221642966233715	0.0221642966233715	0.0221642966233715	0.0221642966233715	0.0221642966233715
0.00596014668846767	0.00596014668846767	0.00596014668846767	0.00596014668846767	0.00596014668846767	0.00596014668846767
-0.0152028375197336	-0.0152028375197336	-0.0152028375197336	-0.0152028375197336	-0.0152028375197336	-0.0152028375197336
-0.0403770950858862	-0.0403770950858862	-0.0403770950858862	-0.0403770950858862	-0.0403770950858862	-0.0403770950858862
-0.0672573316564321	-0.0672573316564321	-0.0672573316564321	-0.0672573316564321	-0.0672573316564321	-0.0672573316564321
-0.092180519439602	-0.092180519439602	-0.092180519439602	-0.092180519439602	-0.092180519439602	-0.092180519439602
-0.110264857819627	-0.110264857819627	-0.110264857819627	-0.110264857819627	-0.110264857819627	-0.110264857819627
-0.11597839384456	-0.11597839384456	-0.11597839384456	-0.11597839384456	-0.11597839384456	-0.11597839384456
-0.102103157279939	-0.102103157279939	-0.102103157279939	-0.102103157279939	-0.102103157279939	-0.102103157279939
-0.0627042220472024	-0.0627042220472024	-0.0627042220472024	-0.0627042220472024	-0.0627042220472024	-0.0627042220472024
0.00637346471333383	0.00637346471333383	0.00637346471333383	0.00637346471333383	0.00637346471333383	0.00637346471333383
0.107505082642472	0.107505082642472	0.107505082642472	0.107505082642472	0.107505082642472	0.107505082642472
0.241285938162136	0.241285938162136	0.241285938162136	0.241285938162136	0.241285938162136	0.241285938162136
0.406306720764791	0.406306720764791	0.406306720764791	0.406306720764791	0.406306720764791	0.406306720764791
0.591822330904298	0.591822330904298	0.591822330904298	0.591822330904298	0.591822330904298	0.591822330904298
0.779786342001026	0.779786342001026	0.779786342001026	0.779786342001026	0.779786342001026	0.779786342001026
0.951211619380907	0.951211619380907	0.951211619380907	0.951211619380907	0.951211619380907	0.951211619380907
1.08628537832015	1.08628537832015	1.08628537832015	1.08628537832015	1.08628537832015	1.08628537832015
1.16436918404522	1.16436918404522	1.16436918404522	1.16436918404522	1.16436918404522	1.16436918404522
1.16768014003439	1.16768014003439	1.16768014003439	1.16768014003439	1.16768014003439	1.16768014003439
1.09797733677624	1.09797733677624	1.09797733677624	1.09797733677624	1.09797733677624	1.09797733677624
0.966766742749713	0.966766742749713	0.966766742749713	0.966766742749713	0.966766742749713	0.966766742749713
0.789805754104077	0.789805754104077	0.789805754104077	0.789805754104077	0.789805754104077	0.789805754104077
0.587100651911353	0.587100651911353	0.587100651911353	0.587100651911353	0.587100651911353	0.587100651911353
0.382839581390145	0.382839581390145	0.382839581390145	0.382839581390145	0.382839581390145	0.382839581390145
0.197256236604493	0.197256236604493	0.197256236604493	0.197256236604493	0.197256236604493	0.197256236604493
0.0405544528444731	0.0405544528444731	0.0405544528444731	0.0405544528444731	0.0405544528444731	0.0405544528444731
-0.0806273980245807	-0.0806273980245807	-0.0806273980245807	-0.0806273980245807	-0.0806273980245807	-0.0806273980245807
-0.163755939820678	-0.163755939820678	-0.163755939820678	-0.163755939820678	-0.163755939820678	-0.163755939820678
-0.210397309151967	-0.210397309151967	-0.210397309151967	-0.210397309151967	-0.210397309151967	-0.210397309151967
-0.224548316772751	-0.224548316772751	-0.224548316772751	-0.224548316772751	-0.224548316772751	-0.224548316772751
-0.213208064521327	-0.213208064521327	-0.213208064521327	-0.213208064521327	-0.213208064521327	-0.213208064521327
-0.184436615888535	-0.184436615888535	-0.184436615888535	-0.184436615888535	-0.184436615888535	-0.184436615888535
-0.145543014666222	-0.145543014666222	-0.145543014666222	-0.145543014666222	-0.145543014666222	-0.145543014666222
-0.103085284947243	-0.103085284947243	-0.103085284947243	-0.103085284947243	-0.103085284947243	-0.103085284947243
-0.0628704311254601	-0.0628704311254601	-0.0628704311254601	-0.0628704311254601	-0.0628704311254601	-0.0628704311254601
-0.0294558906025465	-0.0294558906025465	-0.0294558906025465	-0.0294558906025465	-0.0294558906025465	-0.0294558906025465
-0.00364145850645914	-0.00364145850645914	-0.00364145850645914	-0.00364145850645914	-0.00364145850645914	-0.00364145850645914
0.0152892046730108	0.0152892046730108	0.0152892046730108	0.0152892046730108	0.0152892046730108	0.0152892046730108
0.0282991307996217	0.0282991307996217	0.0282991307996217	0.0282991307996217	0.0282991307996217	0.0282991307996217
0.0365959984714783	0.0365959984714783	0.0365959984714783	0.0365959984714783	0.0365959984714783	0.0365959984714783
0.0416321330210319	0.0416321330210319	0.0416321330210319	0.0416321330210319	0.0416321330210319	0.0416321330210319
0.0450176495508935	0.0450176495508935	0.0450176495508935	0.0450176495508935	0.0450176495508935	0.0450176495508935
0.047576747549769	0.047576747549769	0.047576747549769	0.047576747549769	0.047576747549769	0.047576747549769
0.0497075201938389	0.0497075201938389	0.0497075201938389	0.0497075201938389	0.0497075201938389	0.0497075201938389
0.0517410297341844	0.0517410297341844	0.0517410297341844	0.0517410297341844	0.0517410297341844	0.0517410297341844
0.0539138050285353	0.0539138050285353	0.0539138050285353	0.0539138050285353	0.0539138050285353	0.0539138050285353
0.0563678415412704	0.0563678415412704	0.0563678415412704	0.0563678415412704	0.0563678415412704	0.0563678415412704
0.0591506013434175	0.0591506013434175	0.0591506013434175	0.0591506013434175	0.0591506013434175	0.0591506013434175
0.0622612691613607	0.0622612691613607	0.0622612691613607	0.0622612691613607	0.0622612691613607	0.0622612691613607
0.0657658558885026	0.0657658558885026	0.0657658558885026	0.0657658558885026	0.0657658558885026	0.0657658558885026
0.0697066909203006	0.0697066909203006	0.0697066909203006	0.0697066909203006	0.0697066909203006	0.0697066909203006
0.0741235587066406	0.0741235587066406	0.0741235587066406	0.0741235587066406	0.0741235587066406	0.0741235587066406
0.0790549616530706	0.0790549616530706	0.0790549616530706	0.0790549616530706	0.0790549616530706	0.0790549616530706
0.0845381201208019	0.0845381201208019	0.0845381201208019	0.0845381201208019	0.0845381201208019	0.0845381201208019
0.0906089724267077	0.0906089724267077	0.0906089724267077	0.0906089724267077	0.0906089724267077	0.0906089724267077
0.0973021748433243	0.0973021748433243	0.0973021748433243	0.0973021748433243	0.0973021748433243	0.0973021748433243
0.10465110159885	0.10465110159885	0.10465110159885	0.10465110159885	0.10465110159885	0.10465110159885
0.112675539497963	0.112675539497963	0.112675539497963	0.112675539497963	0.112675539497963	0.112675539497963
0.121396610568764	0.121396610568764	0.121396610568764	0.121396610568764	0.121396610568764	0.121396610568764
0.13084230402611	0.13084230402611	0.13084230402611	0.13084230402611	0.13084230402611	0.13084230402611
0.141029275130773	0.141029275130773	0.141029275130773	0.141029275130773	0.141029275130773	0.141029275130773
0.151962836692038	0.151962836692038	0.151962836692038	0.151962836692038	0.151962836692038	0.151962836692038
0.163636959067696	0.163636959067696	0.163636959067696	0.163636959067696	0.163636959067696	0.163636959067696
0.176034270164051	0.176034270164051	0.176034270164051	0.176034270164051	0.176034270164051	0.176034270164051
0.189126055435915	0.189126055435915	0.189126055435915	0.189126055435915	0.189126055435915	0.189126055435915
0.202872257886612	0.202872257886612	0.202872257886612	0.202872257886612	0.202872257886612	0.202872257886612
0.217221478067973	0.217221478067973	0.217221478067973	0.217221478067973	0.217221478067973	0.217221478067973
0.23211097408034	0.23211097408034	0.23211097408034	0.23211097408034	0.23211097408034	0.23211097408034
0.247466661572565	0.247466661572565	0.247466661572565	0.247466661572565	0.247466661572565	0.247466661572565
0.26320311374201	0.26320311374201	0.26320311374201	0.26320311374201	0.26320311374201	0.26320311374201
0.279223561334545	0.279223561334545	0.279223561334545	0.279223561334545	0.279223561334545	0.279223561334545
0.295420181607579	0.295420181607579	0.295420181607579	0.295420181607579	0.295420181607579	0.295420181607579
0.31172017436092	0.31172017436092	0.31172017436092	0.31172017436092	0.31172017436092	0.31172017436092
0.327993635252017	0.327993635252017	0.327993635252017	0.327993635252017	0.327993635252017	0.327993635252017
0.344065957354308	0.344065957354308	0.344065957354308	0.344065957354308	0.344065957354308	0.344065957354308
0.359770775671925	0.359770775671925	0.359770775671925	0.359770775671925	0.359770775671925	0.359770775671925
0.374949967139688	0.374949967139688	0.374949967139688	0.374949967139688	0.374949967139688	0.374949967139688
0.389453650623112	0.389453650623112	0.389453650623112	0.389453650623112	0.389453650623112	0.389453650623112
0.403140186918402	0.403140186918402	0.403140186918402	0.403140186918402	0.403140186918402	0.403140186918402
0.415876178752455	0.415876178752455	0.415876178752455	0.415876178752455	0.415876178752455	0.415876178752455
0.42753647078286	0.42753647078286	0.42753647078286	0.42753647078286	0.42753647078286	0.42753647078286
0.438004149597896	0.438004149597896	0.438004149597896	0.438004149597896	0.438004149597896	0.438004149597896
0.447170543716537	0.447170543716537	0.447170543716537	0.447170543716537	0.447170543716537	0.447170543716537
0.454935223588445	0.454935223588445	0.454935223588445	0.454935223588445	0.454935223588445	0.454935223588445
0.461206001593977	0.461206001593977	0.461206001593977	0.461206001593977	0.461206001593977	0.461206001593977
0.46589893204418	0.46589893204418	0.46589893204418	0.46589893204418	0.46589893204418	0.46589893204418
0.468938311180792	0.468938311180792	0.468938311180792	0.468938311180792	0.468938311180792	0.468938311180792
0.470256677176245	0.470256677176245	0.470256677176245	0.470256677176245	0.470256677176245	0.470256677176245
0.469783732842453	0.469783732842453	0.469783732842453	0.469783732842453	0.469783732842453	0.469783732842453
0.467431749720234	0.467431749720234	0.467431749720234	0.467431749720234	0.467431749720234	0.467431749720234
0.463268654447582	0.463268654447582	0.463268654447582	0.463268654447582	0.463268654447582	0.463268654447582
0.457390349431326	0.457390349431326	0.457390349431326	0.457390349431326	0.457390349431326	0.457390349431326
0.44989579436391	0.44989579436391	0.44989579436391	0.44989579436391	0.44989579436391	0.44989579436391
0.440887006223393	0.440887006223393	0.440887006223393	0.440887006223393	0.440887006223393	0.440887006223393
0.430469059273449	0.430469059273449	0.430469059273449	0.430469059273449	0.430469059273449	0.430469059273449
0.418750085063366	0.418750085063366	0.418750085063366	0.418750085063366	0.418750085063366	0.418750085063366
0.405841272428048	0.405841272428048	0.405841272428048	0.405841272428048	0.405841272428048	0.405841272428048
0.391856867488013	0.391856867488013	0.391856867488013	0.391856867488013	0.391856867488013	0.391856867488013
0.376914173649394	0.376914173649394	0.376914173649394	0.376914173649394	0.376914173649394	0.376914173649394
0.36113355160394	0.36113355160394	0.36113355160394	0.36113355160394	0.36113355160394	0.36113355160394
0.344638419329014	0.344638419329014	0.344638419329014	0.344638419329014	0.344638419329014	0.344638419329014
0.327555252087592	0.327555252087592	0.327555252087592	0.327555252087592	0.327555252087592	0.327555252087592
0.310013582428269	0.310013582428269	0.310013582428269	0.310013582428269	0.310013582428269	0.310013582428269
0.292146000185251	0.292146000185251	0.292146000185251	0.292146000185251	0.292146000185251	0.292146000185251
0.274088152478362	0.274088152478362	0.274088152478362	0.274088152478362	0.274088152478362	0.274088152478362
0.255978743713037	0.255978743713037	0.255978743713037	0.255978743713037	0.255978743713037	0.255978743713037
0.23795953558033	0.23795953558033	0.23795953558033	0.23795953558033	0.23795953558033	0.23795953558033
0.220175347056907	0.220175347056907	0.220175347056907	0.220175347056907	0.220175347056907	0.220175347056907
0.202774054405049	0.202774054405049	0.202774054405049	0.202774054405049	0.202774054405049	0.202774054405049
0.185906591172655	0.185906591172655	0.185906591172655	0.185906591172655	0.185906591172655	0.185906591172655
0.169709560943009	0.169709560943009	0.169709560943009	0.169709560943009	0.169709560943009	0.169709560943009
0.15419666164588	0.15419666164588	0.15419666164588	0.15419666164588	0.15419666164588	0.15419666164588
0.139394862437412	0.139394862437412	0.139394862437412	0.139394862437412	0.139394862437412	0.139394862437412
0.125335817450161	0.125335817450161	0.125335817450161	0.125335817450161	0.125335817450161	0.125335817450161
0.112044800380906	0.112044800380906	0.112044800380906	0.112044800380906	0.112044800380906	0.112044800380906
0.0995407044906468	0.0995407044906468	0.0995407044906468	0.0995407044906468	0.0995407044906468	0.0995407044906468
0.0878360426046078	0.0878360426046078	0.0878360426046078	0.0878360426046078	0.0878360426046078	0.0878360426046078
0.0769369471122339	0.0769369471122339	0.0769369471122339	0.0769369471122339	0.0769369471122339	0.0769369471122339
0.0668431699671932	0.0668431699671932	0.0668431699671932	0.0668431699671932	0.0668431699671932	0.0668431699671932
0.0575480826873759	0.0575480826873759	0.0575480826873759	0.0575480826873759	0.0575480826873759	0.0575480826873759
0.0490386763548946	0.0490386763548946	0.0490386763548946	0.0490386763548946	0.0490386763548946	0.0490386763548946
0.0412955616160841	0.0412955616160841	0.0412955616160841	0.0412955616160841	0.0412955616160841	0.0412955616160841
0.0342929686815013	0.0342929686815013	0.0342929686815013	0.0342929686815013	0.0342929686815013	0.0342929686815013
0.0279987473259261	0.0279987473259261	0.0279987473259261	0.0279987473259261	0.0279987473259261	0.0279987473259261
0.0223743668883599	0.0223743668883599	0.0223743668883599	0.0223743668883599	0.0223743668883599	0.0223743668883599
0.017374916272027	0.017374916272027	0.017374916272027	0.017374916272027	0.017374916272027	0.017374916272027
0.0129491039443739	0.0129491039443739	0.0129491039443739	0.0129491039443739	0.0129491039443739	0.0129491039443739
0.00903925793706911	0.00903925793706911	0.00903925793706911	0.00903925793706911	0.00903925793706911	0.00903925793706911
0.0055816920889824	0.0055816920889824	0.0055816920889824	0.0055816920889824	0.0055816920889824	0.0055816920889824
0.00254516856623388	0.00254516856623388	0.00254516856623388	0.00254516856623388	0.00254516856623388	0.00254516856623388
-9.43795009600845e-05	-9.43795009600845e-05	-9.43795009600845e-05	-9.43795009600845e-05	-9.43795009600845e-05	-9.43795009600845e-05
-0.00237595592255208	-0.00237595592255208	-0.00237595592255208	-0.00237595592255208	-0.00237595592255208	-0.00237595592255208
-0.00433628598936131	-0.00433628598936131	-0.00433628598936131	-0.00433628598936131	-0.00433628598936131	-0.00433628598936131
-0.00600981647307408	-0.00600981647307408	-0.00600981647307408	-0.00600981647307408	-0.00600981647307408	-0.00600981647307408
-0.00742871562624353	-0.00742871562624353	-0.00742871562624353	-0.00742871562624353	-0.00742871562624353	-0.00742871562624353
-0.00862287318228977	-0.00862287318228977	-0.00862287318228977	-0.00862287318228977	-0.00862287318228977	-0.00862287318228977
-0.00961990035549931	-0.00961990035549931	-0.00961990035549931	-0.00961990035549931	-0.00961990035549931	-0.00961990035549931
-0.010445129841026	-0.010445129841026	-0.010445129841026	-0.010445129841026	-0.010445129841026	-0.010445129841026
-0.0111216158148905	-0.0111216158148905	-0.0111216158148905	-0.0111216158148905	-0.0111216158148905	-0.0111216158148905
-0.0116701339339799	-0.0116701339339799	-0.0116701339339799	-0.0116701339339799	-0.0116701339339799	-0.0116701339339799
-0.0121091813360487	-0.0121091813360487	-0.0121091813360487	-0.0121091813360487	-0.0121091813360487	-0.0121091813360487
-0.0124549766397178	-0.0124549766397178	-0.0124549766397178	-0.0124549766397178	-0.0124549766397178	-0.0124549766397178
-0.0127214599444752	-0.0127214599444752	-0.0127214599444752	-0.0127214599444752	-0.0127214599444752	-0.0127214599444752
-0.0129202928306758	-0.0129202928306758	-0.0129202928306758	-0.0129202928306758	-0.0129202928306758	-0.0129202928306758
-0.0130608357779629	-0.0130608357779629	-0.0130608357779629	-0.0130608357779629	-0.0130608357779629	-0.0130608357779629
-0.013146609989319	-0.013146609989319	-0.013146609989319	-0.013146609989319	-0.013146609989319	-0.013146609989319
-0.0131823043821022	-0.0131823043821022	-0.0131823043821022	-0.0131823043821022	-0.0131823043821022	-0.0131823043821022
-0.0131753693437628	-0.0131753693437628	-0.0131753693437628	-0.0131753693437628	-0.0131753693437628	-0.0131753693437628
-0.0131327479983824	-0.0131327479983824	-0.0131327479983824	-0.0131327479983824	-0.0131327479983824	-0.0131327479983824
-0.0130608762066735	-0.0130608762066735	-0.0130608762066735	-0.0130608762066735	-0.0130608762066735	-0.0130608762066735
-0.0129656825659792	-0.0129656825659792	-0.0129656825659792	-0.0129656825659792	-0.0129656825659792	-0.0129656825659792
-0.0128525884102742	-0.0128525884102742	-0.0128525884102742	-0.0128525884102742	-0.0128525884102742	-0.0128525884102742
-0.0127265078101635	-0.0127265078101635	-0.0127265078101635	-0.0127265078101635	-0.0127265078101635	-0.0127265078101635
-0.0125918475728836	-0.0125918475728836	-0.0125918475728836	-0.0125918475728836	-0.0125918475728836	-0.0125918475728836
-0.0124525072423015	-0.0124525072423015	-0.0124525072423015	-0.0124525072423015	-0.0124525072423015	-0.0124525072423015
-0.0123118790989155	-0.0123118790989155	-0.0123118790989155	-0.0123118790989155	-0.0123118790989155	-0.0123118790989155
-0.0121728481598545	-0.0121728481598545	-0.0121728481598545	-0.0121728481598545	-0.0121728481598545	-0.0121728481598545
-0.0120377921788788	-0.0120377921788788	-0.0120377921788788	-0.0120377921788788	-0.0120377921788788	-0.0120377921788788
-0.0119085816463793	-0.0119085816463793	-0.0119085816463793	-0.0119085816463793	-0.0119085816463793	-0.0119085816463793
-0.011786579789378	-0.011786579789378	-0.011786579789378	-0.011786579789378	-0.011786579789378	-0.011786579789378
-0.0116726425715278	-0.0116726425715278	-0.0116726425715278	-0.0116726425715278	-0.0116726425715278	-0.0116726425715278
-0.0115671186931126	-0.0115671186931126	-0.0115671186931126	-0.0115671186931126	-0.0115671186931126	-0.0115671186931126
-0.0114698495910471	-0.0114698495910471	-0.0114698495910471	-0.0114698495910471	-0.0114698495910471	-0.0114698495910471
-0.0113801694388773	-0.0113801694388773	-0.0113801694388773	-0.0113801694388773	-0.0113801694388773	-0.0113801694388773
-0.0112969051467798	-0.0112969051467798	-0.0112969051467798	-0.0112969051467798	-0.0112969051467798	-0.0112969051467798
-0.0112183763615623	-0.0112183763615623	-0.0112183763615623	-0.0112183763615623	-0.0112183763615623	-0.0112183763615623
-0.0111423954666635	-0.0111423954666635	-0.0111423954666635	-0.0111423954666635	-0.0111423954666635	-0.0111423954666635
-0.0110662675821529	-0.0110662675821529	-0.0110662675821529	-0.0110662675821529	-0.0110662675821529	-0.0110662675821529
-0.010986796158317	-0.010986796158317	-0.010986796158317	-0.010986796158317	-0.010986796158317	-0.010986796158317
-0.0109031634842964	-0.0109031634842964	-0.0109031634842964	-0.0109031634842964	-0.0109031634842964	-0.0109031634842964
-0.0108184382121956	-0.0108184382121956	-0.0108184382121956	-0.0108184382121956	-0.0108184382121956	-0.0108184382121956
-0.01073493410112	-0.01073493410112	-0.01073493410112	-0.01073493410112	-0.01073493410112	-0.01073493410112
-0.0106543657804583	-0.0106543657804583	-0.0106543657804583	-0.0106543657804583	-0.0106543657804583	-0.0106543657804583
-0.0105778487498827	-0.0105778487498827	-0.0105778487498827	-0.0105778487498827	-0.0105778487498827	-0.0105778487498827
-0.0105058993793488	-0.0105058993793488	-0.0105058993793488	-0.0105058993793488	-0.0105058993793488	-0.0105058993793488
-0.0104384349090952	-0.0104384349090952	-0.0104384349090952	-0.0104384349090952	-0.0104384349090952	-0.0104384349090952
-0.0103747734496445	-0.0103747734496445	-0.0103747734496445	-0.0103747734496445	-0.0103747734496445	-0.0103747734496445
-0.0103136339818019	-0.0103136339818019	-0.0103136339818019	-0.0103136339818019	-0.0103136339818019	-0.0103136339818019
-0.0102531363566566	-0.0102531363566566	-0.0102531363566566	-0.0102531363566566	-0.0102531363566566	-0.0102531363566566
-0.0101908012955808	-0.0101908012955808	-0.0101908012955808	-0.0101908012955808	-0.0101908012955808	-0.0101908012955808
-0.0101235503902299	-0.0101235503902299	-0.0101235503902299	-0.0101235503902299	-0.0101235503902299	-0.0101235503902299
-0.0100477061025434	-0.0100477061025434	-0.0100477061025434	-0.0100477061025434	-0.0100477061025434	-0.0100477061025434
-0.0099589917647433	-0.0099589917647433	-0.0099589917647433	-0.0099589917647433	-0.0099589917647433	-0.0099589917647433
-0.00985253157933541	-0.00985253157933541	-0.00985253157933541	-0.00985253157933541	-0.00985253157933541	-0.00985253157933541
-0.00972285061910882	-0.00972285061910882	-0.00972285061910882	-0.00972285061910882	-0.00972285061910882	-0.00972285061910882
-0.00956387482713605	-0.00956387482713605	-0.00956387482713605	-0.00956387482713605	-0.00956387482713605	-0.00956387482713605
-0.00936893101677277	-0.00936893101677277	-0.00936893101677277	-0.00936893101677277	-0.00936893101677277	-0.00936893101677277
-0.00913754395677885	-0.00913754395677885	-0.00913754395677885	-0.00913754395677885	-0.00913754395677885	-0.00913754395677885
-0.00885317061502694	-0.00885317061502694	-0.00885317061502694	-0.00885317061502694	-0.00885317061502694	-0.00885317061502694
-0.00847995864687329	-0.00847995864687329	-0.00847995864687329	-0.00847995864687329	-0.00847995864687329	-0.00847995864687329
-0.00797718915953555	-0.00797718915953555	-0.00797718915953555	-0.00797718915953555	-0.00797718915953555	-0.00797718915953555
-0.007299279266612	-0.007299279266612	-0.007299279266612	-0.007299279266612	-0.007299279266612	-0.007299279266612
-0.00639578208808195	-0.00639578208808195	-0.00639578208808195	-0.00639578208808195	-0.00639578208808195	-0.00639578208808195
-0.00521138675030525	-0.00521138675030525	-0.00521138675030525	-0.00521138675030525	-0.00521138675030525	-0.00521138675030525
-0.00368591838602289	-0.00368591838602289	-0.00368591838602289	-0.00368591838602289	-0.00368591838602289	-0.00368591838602289
-0.00175433813435666	-0.00175433813435666	-0.00175433813435666	-0.00175433813435666	-0.00175433813435666	-0.00175433813435666
0.000653256859190876	0.000653256859190876	0.000653256859190876	0.000653256859190876	0.000653256859190876	0.000653256859190876
0.00361163344273613	0.00361163344273613	0.00361163344273613	0.00361163344273613	0.00361163344273613	0.00361163344273613
0.007200422458015	0.007200422458015	0.007200422458015	0.007200422458015	0.007200422458015	0.007200422458015
0.0115041187403823	0.0115041187403823	0.0115041187403823	0.0115041187403823	0.0115041187403823	0.0115041187403823
0.0166120811188119	0.0166120811188119	0.0166120811188119	0.0166120811188119	0.0166120811188119	0.0166120811188119
0.022618532415897	0.022618532415897	0.022618532415897	0.022618532415897	0.022618532415897	0.022618532415897
0.02962255944785	0.02962255944785	0.02962255944785	0.02962255944785	0.02962255944785	0.02962255944785
0.037728113024502	0.037728113024502	0.037728113024502	0.037728113024502	0.037728113024502	0.037728113024502
0.0470440079493039	0.0470440079493039	0.0470440079493039	0.0470440079493039	0.0470440079493039	0.0470440079493039
0.0576245365509027	0.0576245365509027	0.0576245365509027	0.0576245365509027	0.0576245365509027	0.0576245365509027
0.0694159108595713	0.0694159108595713	0.0694159108595713	0.0694159108595713	0.0694159108595713	0.0694159108595713
0.0823641646444286	0.0823641646444286	0.0823641646444286	0.0823641646444286	0.0823641646444286	0.0823641646444286
0.0963746282429621	0.0963746282429621	0.0963746282429621	0.0963746282429621	0.0963746282429621	0.0963746282429621
0.111311461227113	0.111311461227113	0.111311461227113	0.111311461227113	0.111311461227113	0.111311461227113
0.126997652403278	0.126997652403278	0.126997652403278	0.126997652403278	0.126997652403278	0.126997652403278
0.143215019812305	0.143215019812305	0.143215019812305	0.143215019812305	0.143215019812305	0.143215019812305
0.159704210729498	0.159704210729498	0.159704210729498	0.159704210729498	0.159704210729498	0.159704210729498
0.176164701664615	0.176164701664615	0.176164701664615	0.176164701664615	0.176164701664615	0.176164701664615
0.192254798361867	0.192254798361867	0.192254798361867	0.192254798361867	0.192254798361867	0.192254798361867
0.207591635799919	0.207591635799919	0.207591635799919	0.207591635799919	0.207591635799919	0.207591635799919
0.221751178191892	0.221751178191892	0.221751178191892	0.221751178191892	0.221751178191892	0.221751178191892
0.234368446490491	0.234368446490491	0.234368446490491	0.234368446490491	0.234368446490491	0.234368446490491
0.245128621516773	0.245128621516773	0.245128621516773	0.245128621516773	0.245128621516773	0.245128621516773
0.253691630634859	0.253691630634859	0.253691630634859	0.253691630634859	0.253691630634859	0.253691630634859
0.259793142018102	0.259793142018102	0.259793142018102	0.259793142018102	0.259793142018102	0.259793142018102
0.263244656034179	0.263244656034179	0.263244656034179	0.263244656034179	0.263244656034179	0.263244656034179
0.26393350524509	0.26393350524509	0.26393350524509	0.26393350524509	0.26393350524509	0.26393350524509
0.261822854407161	0.261822854407161	0.261822854407161	0.261822854407161	0.261822854407161	0.261822854407161
0.256951700471041	0.256951700471041	0.256951700471041	0.256951700471041	0.256951700471041	0.256951700471041
0.249434872581705	0.249434872581705	0.249434872581705	0.249434872581705	0.249434872581705	0.249434872581705
0.239463032078451	0.239463032078451	0.239463032078451	0.239463032078451	0.239463032078451	0.239463032078451
0.227302672494902	0.227302672494902	0.227302672494902	0.227302672494902	0.227302672494902	0.227302672494902
0.213296012693261	0.213296012693261	0.213296012693261	0.213296012693261	0.213296012693261	0.213296012693261
0.197759323665632	0.197759323665632	0.197759323665632	0.197759323665632	0.197759323665632	0.197759323665632
0.181066398223931	0.181066398223931	0.181066398223931	0.181066398223931	0.181066398223931	0.181066398223931
0.163652216081422	0.163652216081422	0.163652216081422	0.163652216081422	0.163652216081422	0.163652216081422
0.145909662771116	0.145909662771116	0.145909662771116	0.145909662771116	0.145909662771116	0.145909662771116
0.128189529645768	0.128189529645768	0.128189529645768	0.128189529645768	0.128189529645768	0.128189529645768
0.11080051387788	0.11080051387788	0.11080051387788	0.11080051387788	0.11080051387788	0.11080051387788
0.0940092184597012	0.0940092184597012	0.0940092184597012	0.0940092184597012	0.0940092184597012	0.0940092184597012
0.078040152203226	0.078040152203226	0.078040152203226	0.078040152203226	0.078040152203226	0.078040152203226
0.0630757297401954	0.0630757297401954	0.0630757297401954	0.0630757297401954	0.0630757297401954	0.0630757297401954
0.0492562715220967	0.0492562715220967	0.0492562715220967	0.0492562715220967	0.0492562715220967	0.0492562715220967
0.0366800038201639	0.0366800038201639	0.0366800038201639	0.0366800038201639	0.0366800038201639	0.0366800038201639
0.025384582217543	0.025384582217543	0.025384582217543	0.025384582217543	0.025384582217543	0.025384582217543
0.0153027671581509	0.0153027671581509	0.0153027671581509	0.0153027671581509	0.0153027671581509	0.0153027671581509
0.00647983283829162	0.00647983283829162	0.00647983283829162	0.00647983283829162	0.00647983283829162	0.00647983283829162
-0.00108052864044172	-0.00108052864044172	-0.00108052864044172	-0.00108052864044172	-0.00108052864044172	-0.00108052864044172
-0.00744493992473649	-0.00744493992473649	-0.00744493992473649	-0.00744493992473649	-0.00744493992473649	-0.00744493992473649
-0.01275033840956	-0.01275033840956	-0.01275033840956	-0.01275033840956	-0.01275033840956	-0.01275033840956
-0.0172039762381605	-0.0172039762381605	-0.0172039762381605	-0.0172039762381605	-0.0172039762381605	-0.0172039762381605
-0.0210834203020662	-0.0210834203020662	-0.0210834203020662	-0.0210834203020662	-0.0210834203020662	-0.0210834203020662
-0.0247365522410857	-0.0247365522410857	-0.0247365522410857	-0.0247365522410857	-0.0247365522410857	-0.0247365522410857
-0.0285815684433082	-0.0285815684433082	-0.0285815684433082	-0.0285815684433082	-0.0285815684433082	-0.0285815684433082
-0.0331069800451031	-0.0331069800451031	-0.0331069800451031	-0.0331069800451031	-0.0331069800451031	-0.0331069800451031
-0.0387118700266029	-0.0387118700266029	-0.0387118700266029	-0.0387118700266029	-0.0387118700266029	-0.0387118700266029
-0.0467122476325075	-0.0467122476325075	-0.0467122476325075	-0.0467122476325075	-0.0467122476325075	-0.0467122476325075
-0.0588766478235017	-0.0588766478235017	-0.0588766478235017	-0.0588766478235017	-0.0588766478235017	-0.0588766478235017
-0.0759962336969793	-0.0759962336969793	-0.0759962336969793	-0.0759962336969793	-0.0759962336969793	-0.0759962336969793
-0.0978649707813223	-0.0978649707813223	-0.0978649707813223	-0.0978649707813223	-0.0978649707813223	-0.0978649707813223
-0.1232796270359	-0.1232796270359	-0.1232796270359	-0.1232796270359	-0.1232796270359	-0.1232796270359
-0.150039772851069	-0.150039772851069	-0.150039772851069	-0.150039772851069	-0.150039772851069	-0.150039772851069
-0.175055159030961	-0.175055159030961	-0.175055159030961	-0.175055159030961	-0.175055159030961	-0.175055159030961
-0.193511553137797	-0.193511553137797	-0.193511553137797	-0.193511553137797	-0.193511553137797	-0.193511553137797
-0.197948415640677	-0.197948415640677	-0.197948415640677	-0.197948415640677	-0.197948415640677	-0.197948415640677
-0.181852116125918	-0.181852116125918	-0.181852116125918	-0.181852116125918	-0.181852116125918	-0.181852116125918
-0.140024868161533	-0.140024868161533	-0.140024868161533	-0.140024868161533	-0.140024868161533	-0.140024868161533
-0.0685847292972231	-0.0685847292972231	-0.0685847292972231	-0.0685847292972231	-0.0685847292972231	-0.0685847292972231
0.0350343989356162	0.0350343989356162	0.0350343989356162	0.0350343989356162	0.0350343989356162	0.0350343989356162
0.172102510397107	0.172102510397107	0.172102510397107	0.172102510397107	0.172102510397107	0.172102510397107
0.340958385115545	0.340958385115545	0.340958385115545	0.340958385115545	0.340958385115545	0.340958385115545
0.527468145289028	0.527468145289028	0.527468145289028	0.527468145289028	0.527468145289028	0.527468145289028
0.713455666315678	0.713455666315678	0.713455666315678	0.713455666315678	0.713455666315678	0.713455666315678
0.880005602755759	0.880005602755759	0.880005602755759	0.880005602755759	0.880005602755759	0.880005602755759
1.00746338833168	1.00746338833168	1.00746338833168	1.00746338833168	1.00746338833168	1.00746338833168
1.07543523592798	1.07543523592798	1.07543523592798	1.07543523592798	1.07543523592798	1.07543523592798
1.06658334255985	1.06658334255985	1.06658334255985	1.06658334255985	1.06658334255985	1.06658334255985
0.984900931785092	0.984900931785092	0.984900931785092	0.984900931785092	0.984900931785092	0.984900931785092
0.844199665363981	0.844199665363981	0.844199665363981	0.844199665363981	0.844199665363981	0.844199665363981
0.661549689247659	0.661549689247659	0.661549689247659	0.661549689247659	0.661549689247659	0.661549689247659
0.457282103965684	0.457282103965684	0.457282103965684	0.457282103965684	0.457282103965684	0.457282103965684
0.254910823011413	0.254910823011413	0.254910823011413	0.254910823011413	0.254910823011413	0.254910823011413
0.0736009808641607	0.0736009808641607	0.0736009808641607	0.0736009808641607	0.0736009808641607	0.0736009808641607
-0.0774345944968092	-0.0774345944968092	-0.0774345944968092	-0.0774345944968092	-0.0774345944968092	-0.0774345944968092
-0.192514360028401	-0.192514360028401	-0.192514360028401	-0.192514360028401	-0.192514360028401	-0.192514360028401
-0.269651836659456	-0.269651836659456	-0.269651836659456	-0.269651836659456	-0.269651836659456	-0.269651836659456
-0.310555609290758	-0.310555609290758	-0.310555609290758	-0.310555609290758	-0.310555609290758	-0.310555609290758
-0.320186912919674	-0.320186912919674	-0.320186912919674	-0.320186912919674	-0.320186912919674	-0.320186912919674
-0.304787585264002	-0.304787585264002	-0.304787585264002	-0.304787585264002	-0.304787585264002	-0.304787585264002
-0.273228873946618	-0.273228873946618	-0.273228873946618	-0.273228873946618	-0.273228873946618	-0.273228873946618
-0.233365922358062	-0.233365922358062	-0.233365922358062	-0.233365922358062	-0.233365922358062	-0.233365922358062
-0.191561303411607	-0.191561303411607	-0.191561303411607	-0.191561303411607	-0.191561303411607	-0.191561303411607
-0.152685019543254	-0.152685019543254	-0.152685019543254	-0.152685019543254	-0.152685019543254	-0.152685019543254
-0.120114502711737	-0.120114502711737	-0.120114502711737	-0.120114502711737	-0.120114502711737	-0.120114502711737
-0.0956143498768535	-0.0956143498768535	-0.0956143498768535	-0.0956143498768535	-0.0956143498768535	-0.0956143498768535
-0.0783686936621017	-0.0783686936621017	-0.0783686936621017	-0.0783686936621017	-0.0783686936621017	-0.0783686936621017
-0.0666487141299267	-0.0666487141299267	-0.0666487141299267	-0.0666487141299267	-0.0666487141299267	-0.0666487141299267
-0.058947987245377	-0.058947987245377	-0.058947987245377	-0.058947987245377	-0.058947987245377	-0.058947987245377
-0.0539912719920969	-0.0539912719920969	-0.0539912719920969	-0.0539912719920969	-0.0539912719920969	-0.0539912719920969
-0.0507345103723261	-0.0507345103723261	-0.0507345103723261	-0.0507345103723261	-0.0507345103723261	-0.0507345103723261
-0.0483648274069001	-0.0483648274069001	-0.0483648274069001	-0.0483648274069001	-0.0483648274069001	-0.0483648274069001
-0.0463005167597429	-0.0463005167597429	-0.0463005167597429	-0.0463005167597429	-0.0463005167597429	-0.0463005167597429
-0.0441929580660258	-0.0441929580660258	-0.0441929580660258	-0.0441929580660258	-0.0441929580660258	-0.0441929580660258
-0.0419202374263422	-0.0419202374263422	-0.0419202374263422	-0.0419202374263422	-0.0419202374263422	-0.0419202374263422
-0.0394150585379843	-0.0394150585379843	-0.0394150585379843	-0.0394150585379843	-0.0394150585379843	-0.0394150585379843
-0.0366150551637781	-0.0366150551637781	-0.0366150551637781	-0.0366150551637781	-0.0366150551637781	-0.0366150551637781
-0.0334627911320833	-0.0334627911320833	-0.0334627911320833	-0.0334627911320833	-0.0334627911320833	-0.0334627911320833
-0.0299057603367929	-0.0299057603367929	-0.0299057603367929	-0.0299057603367929	-0.0299057603367929	-0.0299057603367929
-0.0258963867373339	-0.0258963867373339	-0.0258963867373339	-0.0258963867373339	-0.0258963867373339	-0.0258963867373339
-0.0213920243586664	-0.0213920243586664	-0.0213920243586664	-0.0213920243586664	-0.0213920243586664	-0.0213920243586664
-0.0163549572912849	-0.0163549572912849	-0.0163549572912849	-0.0163549572912849	-0.0163549572912849	-0.0163549572912849
-0.0107523996912167	-0.0107523996912167	-0.0107523996912167	-0.0107523996912167	-0.0107523996912167	-0.0107523996912167
-0.00455669051882984	-0.00455669051882984	-0.00455669051882984	-0.00455669051882984	-0.00455669051882984	-0.00455669051882984
0.00225956148329198	0.00225956148329198	0.00225956148329198	0.00225956148329198	0.00225956148329198	0.00225956148329198
0.00973692694533257	0.00973692694533257	0.00973692694533257	0.00973692694533257	0.00973692694533257	0.00973692694533257
0.0179104434088088	0.0179104434088088	0.0179104434088088	0.0179104434088088	0.0179104434088088	0.0179104434088088
0.0268058967381291	0.0268058967381291	0.0268058967381291	0.0268058967381291	0.0268058967381291	0.0268058967381291
0.0364398211205946	0.0364398211205946	0.0364398211205946	0.0364398211205946	0.0364398211205946	0.0364398211205946
0.0468194990663983	0.0468194990663983	0.0468194990663983	0.0468194990663983	0.0468194990663983	0.0468194990663983
0.0579429614086256	0.0579429614086256	0.0579429614086256	0.0579429614086256	0.0579429614086256	0.0579429614086256
0.0697989873032537	0.0697989873032537	0.0697989873032537	0.0697989873032537	0.0697989873032537	0.0697989873032537
0.0823671042291518	0.0823671042291518	0.0823671042291518	0.0823671042291518	0.0823671042291518	0.0823671042291518
0.0956175879880816	0.0956175879880816	0.0956175879880816	0.0956175879880816	0.0956175879880816	0.0956175879880816
0.109511462704697	0.109511462704697	0.109511462704697	0.109511462704697	0.109511462704697	0.109511462704697
0.124000500826543	0.124000500826543	0.124000500826543	0.124000500826543	0.124000500826543	0.124000500826543
0.139028567980293	0.139028567980293	0.139028567980293	0.139028567980293	0.139028567980293	0.139028567980293
0.154528984736811	0.154528984736811	0.154528984736811	0.154528984736811	0.154528984736811	0.154528984736811
0.170401581589753	0.170401581589753	0.170401581589753	0.170401581589753	0.170401581589753	0.170401581589753
0.186537208957348	0.186537208957348	0.186537208957348	0.186537208957348	0.186537208957348	0.186537208957348
0.202821613835375	0.202821613835375	0.202821613835375	0.202821613835375	0.202821613835375	0.202821613835375
0.219135439797162	0.219135439797162	0.219135439797162	0.219135439797162	0.219135439797162	0.219135439797162
0.235354226993588	0.235354226993588	0.235354226993588	0.235354226993588	0.235354226993588	0.235354226993588
0.251348412153079	0.251348412153079	0.251348412153079	0.251348412153079	0.251348412153079	0.251348412153079
0.266983328581613	0.266983328581613	0.266983328581613	0.266983328581613	0.266983328581613	0.266983328581613
0.282119206162716	0.282119206162716	0.282119206162716	0.282119206162716	0.282119206162716	0.282119206162716
0.296611171357464	0.296611171357464	0.296611171357464	0.296611171357464	0.296611171357464	0.296611171357464
0.310309247204482	0.310309247204482	0.310309247204482	0.310309247204482	0.310309247204482	0.310309247204482
0.323058353319945	0.323058353319945	0.323058353319945	0.323058353319945	0.323058353319945	0.323058353319945
0.334710876733673	0.334710876733673	0.334710876733673	0.334710876733673	0.334710876733673	0.334710876733673
0.345163524011291	0.345163524011291	0.345163524011291	0.345163524011291	0.345163524011291	0.345163524011291
0.35428474861623	0.35428474861623	0.35428474861623	0.35428474861623	0.35428474861623	0.35428474861623
0.361956506445338	0.361956506445338	0.361956506445338	0.361956506445338	0.361956506445338	0.361956506445338
0.368080162739015	0.368080162739015	0.368080162739015	0.368080162739015	0.368080162739015	0.368080162739015
0.372576492081219	0.372576492081219	0.372576492081219	0.372576492081219	0.372576492081219	0.372576492081219
0.375385678399462	0.375385678399462	0.375385678399462	0.375385678399462	0.375385678399462	0.375385678399462
0.376467314964812	0.376467314964812	0.376467314964812	0.376467314964812	0.376467314964812	0.376467314964812
0.375800404391891	0.375800404391891	0.375800404391891	0.375800404391891	0.375800404391891	0.375800404391891
0.373383358638879	0.373383358638879	0.373383358638879	0.373383358638879	0.373383358638879	0.373383358638879
0.369233999007508	0.369233999007508	0.369233999007508	0.369233999007508	0.369233999007508	0.369233999007508
0.363389556143068	0.363389556143068	0.363389556143068	0.363389556143068	0.363389556143068	0.363389556143068
0.355906670034403	0.355906670034403	0.355906670034403	0.355906670034403	0.355906670034403	0.355906670034403
0.346861390013914	0.346861390013914	0.346861390013914	0.346861390013914	0.346861390013914	0.346861390013914
0.336349174757554	0.336349174757554	0.336349174757554	0.336349174757554	0.336349174757554	0.336349174757554
0.324484868834069	0.324484868834069	0.324484868834069	0.324484868834069	0.324484868834069	0.324484868834069
0.311352597315496	0.311352597315496	0.311352597315496	0.311352597315496	0.311352597315496	0.311352597315496
0.297073529896991	0.297073529896991	0.297073529896991	0.297073529896991	0.297073529896991	0.297073529896991
0.281820937037141	0.281820937037141	0.281820937037141	0.281820937037141	0.281820937037141	0.281820937037141
0.265761287702466	0.265761287702466	0.265761287702466	0.265761287702466	0.265761287702466	0.265761287702466
0.249054249367416	0.249054249367416	0.249054249367416	0.249054249367416	0.249054249367416	0.249054249367416
0.231852688014371	0.231852688014371	0.231852688014371	0.231852688014371	0.231852688014371	0.231852688014371
0.214302668133643	0.214302668133643	0.214302668133643	0.214302668133643	0.214302668133643	0.214302668133643
0.196543452723475	0.196543452723475	0.196543452723475	0.196543452723475	0.196543452723475	0.196543452723475
0.178707503290039	0.178707503290039	0.178707503290039	0.178707503290039	0.178707503290039	0.178707503290039
0.160920479847441	0.160920479847441	0.160920479847441	0.160920479847441	0.160920479847441	0.160920479847441
0.143301240917716	0.143301240917716	0.143301240917716	0.143301240917716	0.143301240917716	0.143301240917716
0.12596184353083	0.12596184353083	0.12596184353083	0.12596184353083	0.12596184353083	0.12596184353083
0.10900754322468	0.10900754322468	0.10900754322468	0.10900754322468	0.10900754322468	0.10900754322468
0.0925367940450949	0.0925367940450949	0.0925367940450949	0.0925367940450949	0.0925367940450949	0.0925367940450949
0.0766412485458333	0.0766412485458333	0.0766412485458333	0.0766412485458333	0.0766412485458333	0.0766412485458333
0.061405757788585	0.061405757788585	0.061405757788585	0.061405757788585	0.061405757788585	0.061405757788585
0.0469085938354328	0.0469085938354328	0.0469085938354328	0.0469085938354328	0.0469085938354328	0.0469085938354328
0.0332032392333392	0.0332032392333392	0.0332032392333392	0.0332032392333392	0.0332032392333392	0.0332032392333392
0.0203023503385394	0.0203023503385394	0.0203023503385394	0.0203023503385394	0.0203023503385394	0.0203023503385394
0.00821089067787867	0.00821089067787867	0.00821089067787867	0.00821089067787867	0.00821089067787867	0.00821089067787867
-0.0030705087280482	-0.0030705087280482	-0.0030705087280482	-0.0030705087280482	-0.0030705087280482	-0.0030705087280482
-0.0135455493648976	-0.0135455493648976	-0.0135455493648976	-0.0135455493648976	-0.0135455493648976	-0.0135455493648976
-0.0232222652245767	-0.0232222652245767	-0.0232222652245767	-0.0232222652245767	-0.0232222652245767	-0.0232222652245767
-0.0321130228052436	-0.0321130228052436	-0.0321130228052436	-0.0321130228052436	-0.0321130228052436	-0.0321130228052436
-0.0402345211113075	-0.0402345211113075	-0.0402345211113075	-0.0402345211113075	-0.0402345211113075	-0.0402345211113075
-0.047607791653428	-0.047607791653428	-0.047607791653428	-0.047607791653428	-0.047607791653428	-0.047607791653428
-0.0542581984485163	-0.0542581984485163	-0.0542581984485163	-0.0542581984485163	-0.0542581984485163	-0.0542581984485163
-0.0602154380197337	-0.0602154380197337	-0.0602154380197337	-0.0602154380197337	-0.0602154380197337	-0.0602154380197337
-0.0655135393964931	-0.0655135393964931	-0.0655135393964931	-0.0655135393964931	-0.0655135393964931	-0.0655135393964931
-0.0701908641144579	-0.0701908641144579	-0.0701908641144579	-0.0701908641144579	-0.0701908641144579	-0.0701908641144579
-0.0742901062155427	-0.0742901062155427	-0.0742901062155427	-0.0742901062155427	-0.0742901062155427	-0.0742901062155427
-0.0778582922479126	-0.0778582922479126	-0.0778582922479126	-0.0778582922479126	-0.0778582922479126	-0.0778582922479126
-0.0809467812659839	-0.0809467812659839	-0.0809467812659839	-0.0809467812659839	-0.0809467812659839	-0.0809467812659839
-0.0836112648304238	-0.0836112648304238	-0.0836112648304238	-0.0836112648304238	-0.0836112648304238	-0.0836112648304238
-0.0859045113295311	-0.0859045113295311	-0.0859045113295311	-0.0859045113295311	-0.0859045113295311	-0.0859045113295311
-0.0878186878497079	-0.0878186878497079	-0.0878186878497079	-0.0878186878497079	-0.0878186878497079	-0.0878186878497079
-0.0893915708892631	-0.0893915708892631	-0.0893915708892631	-0.0893915708892631	-0.0893915708892631	-0.0893915708892631
-0.0906729295070832	-0.0906729295070832	-0.0906729295070832	-0.0906729295070832	-0.0906729295070832	-0.0906729295070832
-0.0917077554803552	-0.0917077554803552	-0.0917077554803552	-0.0917077554803552	-0.0917077554803552	-0.0917077554803552
-0.0925362633045656	-0.0925362633045656	-0.0925362633045656	-0.0925362633045656	-0.0925362633045656	-0.0925362633045656
-0.0931938901935011	-0.0931938901935011	-0.0931938901935011	-0.0931938901935011	-0.0931938901935011	-0.0931938901935011
-0.0937112960792481	-0.0937112960792481	-0.0937112960792481	-0.0937112960792481	-0.0937112960792481	-0.0937112960792481
-0.0941143636121932	-0.0941143636121932	-0.0941143636121932	-0.0941143636121932	-0.0941143636121932	-0.0941143636121932
-0.0944241981610228	-0.0944241981610228	-0.0944241981610228	-0.0944241981610228	-0.0944241981610228	-0.0944241981610228
-0.0946571278127231	-0.0946571278127231	-0.0946571278127231	-0.0946571278127231	-0.0946571278127231	-0.0946571278127231
-0.0948247033725806	-0.0948247033725806	-0.0948247033725806	-0.0948247033725806	-0.0948247033725806	-0.0948247033725806
-0.0949336983641814	-0.0949336983641814	-0.0949336983641814	-0.0949336983641814	-0.0949336983641814	-0.0949336983641814
-0.0949861090294116	-0.0949861090294116	-0.0949861090294116	-0.0949861090294116	-0.0949861090294116	-0.0949861090294116
-0.0949791543284573	-0.0949791543284573	-0.0949791543284573	-0.0949791543284573	-0.0949791543284573	-0.0949791543284573
-0.0949052759398045	-0.0949052759398045	-0.0949052759398045	-0.0949052759398045	-0.0949052759398045	-0.0949052759398045
-0.0947521382602393	-0.0947521382602393	-0.0947521382602393	-0.0947521382602393	-0.0947521382602393	-0.0947521382602393
-0.0945026284048475	-0.0945026284048475	-0.0945026284048475	-0.0945026284048475	-0.0945026284048475	-0.0945026284048475
-0.0941348562070148	-0.0941348562070148	-0.0941348562070148	-0.0941348562070148	-0.0941348562070148	-0.0941348562070148
-0.0936868642360959	-0.0936868642360959	-0.0936868642360959	-0.0936868642360959	-0.0936868642360959	-0.0936868642360959
-0.0932379763801947	-0.0932379763801947	-0.0932379763801947	-0.0932379763801947	-0.0932379763801947	-0.0932379763801947
-0.0927887668883619	-0.0927887668883619	-0.0927887668883619	-0.0927887668883619	-0.0927887668883619	-0.0927887668883619
-0.0923392249221759	-0.0923392249221759	-0.0923392249221759	-0.0923392249221759	-0.0923392249221759	-0.0923392249221759
-0.0918893396738765	-0.0918893396738765	-0.0918893396738765	-0.0918893396738765	-0.0918893396738765	-0.0918893396738765
-0.0914391003663657	-0.0914391003663657	-0.0914391003663657	-0.0914391003663657	-0.0914391003663657	-0.0914391003663657
-0.090988496253207	-0.090988496253207	-0.090988496253207	-0.090988496253207	-0.090988496253207	-0.090988496253207
-0.0905375166186259	-0.0905375166186259	-0.0905375166186259	-0.0905375166186259	-0.0905375166186259	-0.0905375166186259
-0.0900861507775098	-0.0900861507775098	-0.0900861507775098	-0.0900861507775098	-0.0900861507775098	-0.0900861507775098
-0.0896343880754076	-0.0896343880754076	-0.0896343880754076	-0.0896343880754076	-0.0896343880754076	-0.0896343880754076
-0.0891822178885303	-0.0891822178885303	-0.0891822178885303	-0.0891822178885303	-0.0891822178885303	-0.0891822178885303
-0.0887296296237504	-0.0887296296237504	-0.0887296296237504	-0.0887296296237504	-0.0887296296237504	-0.0887296296237504
-0.0882766127186026	-0.0882766127186026	-0.0882766127186026	-0.0882766127186026	-0.0882766127186026	-0.0882766127186026
-0.0878231566412832	-0.0878231566412832	-0.0878231566412832	-0.0878231566412832	-0.0878231566412832	-0.0878231566412832
-0.0873692508906501	-0.0873692508906501	-0.0873692508906501	-0.0873692508906501	-0.0873692508906501	-0.0873692508906501
-0.0869148849962234	-0.0869148849962234	-0.0869148849962234	-0.0869148849962234	-0.0869148849962234	-0.0869148849962234
-0.0864581888428874	-0.0864581888428874	-0.0864581888428874	-0.0864581888428874	-0.0864581888428874	-0.0864581888428874
-0.0859952457607752	-0.0859952457607752	-0.0859952457607752	-0.0859952457607752	-0.0859952457607752	-0.0859952457607752
-0.0855286085459599	-0.0855286085459599	-0.0855286085459599	-0.0855286085459599	-0.0855286085459599	-0.0855286085459599
-0.0850607491736832	-0.0850607491736832	-0.0850607491736832	-0.0850607491736832	-0.0850607491736832	-0.0850607491736832
-0.0845936482485286	-0.0845936482485286	-0.0845936482485286	-0.0845936482485286	-0.0845936482485286	-0.0845936482485286
-0.0841287950044213	-0.0841287950044213	-0.0841287950044213	-0.0841287950044213	-0.0841287950044213	-0.0841287950044213
-0.0836671873046286	-0.0836671873046286	-0.0836671873046286	-0.0836671873046286	-0.0836671873046286	-0.0836671873046286
-0.0832093316417597	-0.0832093316417597	-0.0832093316417597	-0.0832093316417597	-0.0832093316417597	-0.0832093316417597
-0.0827552431377657	-0.0827552431377657	-0.0827552431377657	-0.0827552431377657	-0.0827552431377657	-0.0827552431377657
-0.0823044455439396	-0.0823044455439396	-0.0823044455439396	-0.0823044455439396	-0.0823044455439396	-0.0823044455439396
-0.0818559712409161	-0.0818559712409161	-0.0818559712409161	-0.0818559712409161	-0.0818559712409161	-0.0818559712409161
-0.0814083612386723	-0.0814083612386723	-0.0814083612386723	-0.0814083612386723	-0.0814083612386723	-0.0814083612386723
-0.0809596651765266	-0.0809596651765266	-0.0809596651765266	-0.0809596651765266	-0.0809596651765266	-0.0809596651765266
-0.0805074413231398	-0.0805074413231398	-0.0805074413231398	-0.0805074413231398	-0.0805074413231398	-0.0805074413231398
-0.0800487565765142	-0.0800487565765142	-0.0800487565765142	-0.0800487565765142	-0.0800487565765142	-0.0800487565765142
-0.0795801864639944	-0.0795801864639944	-0.0795801864639944	-0.0795801864639944	-0.0795801864639944	-0.0795801864639944
-0.0790978151422667	-0.0790978151422667	-0.0790978151422667	-0.0790978151422667	-0.0790978151422667	-0.0790978151422667
-0.0785972353973591	-0.0785972353973591	-0.0785972353973591	-0.0785972353973591	-0.0785972353973591	-0.0785972353973591
-0.0780735486446419	-0.0780735486446419	-0.0780735486446419	-0.0780735486446419	-0.0780735486446419	-0.0780735486446419
-0.0775213649288273	-0.0775213649288273	-0.0775213649288273	-0.0775213649288273	-0.0775213649288273	-0.0775213649288273
-0.0769348029239688	-0.0769348029239688	-0.0769348029239688	-0.0769348029239688	-0.0769348029239688	-0.0769348029239688
-0.0763074899334625	-0.0763074899334625	-0.0763074899334625	-0.0763074899334625	-0.0763074899334625	-0.0763074899334625
-0.0756756730346362	-0.0756756730346362	-0.0756756730346362	-0.0756756730346362	-0.0756756730346362	-0.0756756730346362
-0.0751116114983996	-0.0751116114983996	-0.0751116114983996	-0.0751116114983996	-0.0751116114983996	-0.0751116114983996
-0.0745263914348021	-0.0745263914348021	-0.0745263914348021	-0.0745263914348021	-0.0745263914348021	-0.0745263914348021
-0.0738257027476194	-0.0738257027476194	-0.0738257027476194	-0.0738257027476194	-0.0738257027476194	-0.0738257027476194
-0.0729190843636466	-0.0729190843636466	-0.0729190843636466	-0.0729190843636466	-0.0729190843636466	-0.0729190843636466
-0.0717199242326976	-0.0717199242326976	-0.0717199242326976	-0.0717199242326976	-0.0717199242326976	-0.0717199242326976
-0.0701454593276055	-0.0701454593276055	-0.0701454593276055	-0.0701454593276055	-0.0701454593276055	-0.0701454593276055
-0.0681167756442224	-0.0681167756442224	-0.0681167756442224	-0.0681167756442224	-0.0681167756442224	-0.0681167756442224
-0.0655588082014195	-0.0655588082014195	-0.0655588082014195	-0.0655588082014195	-0.0655588082014195	-0.0655588082014195
-0.0624003410410871	-0.0624003410410871	-0.0624003410410871	-0.0624003410410871	-0.0624003410410871	-0.0624003410410871
-0.0585740072281346	-0.0585740072281346	-0.0585740072281346	-0.0585740072281346	-0.0585740072281346	-0.0585740072281346
-0.0540162888504901	-0.0540162888504901	-0.0540162888504901	-0.0540162888504901	-0.0540162888504901	-0.0540162888504901
-0.0486675170191013	-0.0486675170191013	-0.0486675170191013	-0.0486675170191013	-0.0486675170191013	-0.0486675170191013
-0.0424718718679348	-0.0424718718679348	-0.0424718718679348	-0.0424718718679348	-0.0424718718679348	-0.0424718718679348
-0.0353773825539759	-0.0353773825539759	-0.0353773825539759	-0.0353773825539759	-0.0353773825539759	-0.0353773825539759
-0.0273359272572294	-0.0273359272572294	-0.0273359272572294	-0.0273359272572294	-0.0273359272572294	-0.0273359272572294
-0.018303233180719	-0.018303233180719	-0.018303233180719	-0.018303233180719	-0.018303233180719	-0.018303233180719
-0.00823887655048772	-0.00823887655048772	-0.00823887655048772	-0.00823887655048772	-0.00823887655048772	-0.00823887655048772
0.00289371738440303	0.00289371738440303	0.00289371738440303	0.00289371738440303	0.00289371738440303	0.00289371738440303
0.0151272743518721	0.0151272743518721	0.0151272743518721	0.0151272743518721	0.0151272743518721	0.0151272743518721
0.0284906710568195	0.0284906710568195	0.0284906710568195	0.0284906710568195	0.0284906710568195	0.0284906710568195
0.0430089351811264	0.0430089351811264	0.0430089351811264	0.0430089351811264	0.0430089351811264	0.0430089351811264
0.0586340294133	0.0586340294133	0.0586340294133	0.0586340294133	0.0586340294133	0.0586340294133
0.0750327142548724	0.0750327142548724	0.0750327142548724	0.0750327142548724	0.0750327142548724	0.0750327142548724
0.0918902378820486	0.0918902378820486	0.0918902378820486	0.0918902378820486	0.0918902378820486	0.0918902378820486
0.108891305000496	0.108891305000496	0.108891305000496	0.108891305000496	0.108891305000496	0.108891305000496
0.125712698541629	0.125712698541629	0.125712698541629	0.125712698541629	0.125712698541629	0.125712698541629
0.142023279662605	0.142023279662605	0.142023279662605	0.142023279662605	0.142023279662605	0.142023279662605
0.157483987746326	0.157483987746326	0.157483987746326	0.157483987746326	0.157483987746326	0.157483987746326
0.171747840401442	0.171747840401442	0.171747840401442	0.171747840401442	0.171747840401442	0.171747840401442
0.184459933462347	0.184459933462347	0.184459933462347	0.184459933462347	0.184459933462347	0.184459933462347
0.195257440989177	0.195257440989177	0.195257440989177	0.195257440989177	0.195257440989177	0.195257440989177
0.203773039388726	0.203773039388726	0.203773039388726	0.203773039388726	0.203773039388726	0.203773039388726
0.20975560011896	0.20975560011896	0.20975560011896	0.20975560011896	0.20975560011896	0.20975560011896
0.213067165281517	0.213067165281517	0.213067165281517	0.213067165281517	0.213067165281517	0.213067165281517
0.213623942555403	0.213623942555403	0.213623942555403	0.213623942555403	0.213623942555403	0.213623942555403
0.211410612409019	0.211410612409019	0.211410612409019	0.211410612409019	0.211410612409019	0.211410612409019
0.206480328100155	0.206480328100155	0.206480328100155	0.206480328100155	0.206480328100155	0.206480328100155
0.198954715675992	0.198954715675992	0.198954715675992	0.198954715675992	0.198954715675992	0.198954715675992
0.189023873973104	0.189023873973104	0.189023873973104	0.189023873973104	0.189023873973104	0.189023873973104
0.176946374617453	0.176946374617453	0.176946374617453	0.176946374617453	0.176946374617453	0.176946374617453
0.163049262024395	0.163049262024395	0.163049262024395	0.163049262024395	0.163049262024395	0.163049262024395
0.147728053398675	0.147728053398675	0.147728053398675	0.147728053398675	0.147728053398675	0.147728053398675
0.131387721877525	0.131387721877525	0.131387721877525	0.131387721877525	0.131387721877525	0.131387721877525
0.114373299355632	0.114373299355632	0.114373299355632	0.114373299355632	0.114373299355632	0.114373299355632
0.0970866336257317	0.0970866336257317	0.0970866336257317	0.0970866336257317	0.0970866336257317	0.0970866336257317
0.0798863262573812	0.0798863262573812	0.0798863262573812	0.0798863262573812	0.0798863262573812	0.0798863262573812
0.0630844273486224	0.0630844273486224	0.0630844273486224	0.0630844273486224	0.0630844273486224	0.0630844273486224
0.0469464355259814	0.0469464355259814	0.0469464355259814	0.0469464355259814	0.0469464355259814	0.0469464355259814
0.0316912979444696	0.0316912979444696	0.0316912979444696	0.0316912979444696	0.0316912979444696	0.0316912979444696
0.0174914102875822	0.0174914102875822	0.0174914102875822	0.0174914102875822	0.0174914102875822	0.0174914102875822
0.00447261676730037	0.00447261676730037	0.00447261676730037	0.00447261676730037	0.00447261676730037	0.00447261676730037
-0.00728578987591083	-0.00728578987591083	-0.00728578987591083	-0.00728578987591083	-0.00728578987591083	-0.00728578987591083
-0.0177964310039523	-0.0177964310039523	-0.0177964310039523	-0.0177964310039523	-0.0177964310039523	-0.0177964310039523
-0.0272445674366232	-0.0272445674366232	-0.0272445674366232	-0.0272445674366232	-0.0272445674366232	-0.0272445674366232
-0.0354857337494096	-0.0354857337494096	-0.0354857337494096	-0.0354857337494096	-0.0354857337494096	-0.0354857337494096
-0.0424215625986519	-0.0424215625986519	-0.0424215625986519	-0.0424215625986519	-0.0424215625986519	-0.0424215625986519
-0.0480627664493996	-0.0480627664493996	-0.0480627664493996	-0.0480627664493996	-0.0480627664493996	-0.0480627664493996
-0.0525291375754111	-0.0525291375754111	-0.0525291375754111	-0.0525291375754111	-0.0525291375754111	-0.0525291375754111
-0.0560495480591542	-0.0560495480591542	-0.0560495480591542	-0.0560495480591542	-0.0560495480591542	-0.0560495480591542
-0.0589619497918057	-0.0589619497918057	-0.0589619497918057	-0.0589619497918057	-0.0589619497918057	-0.0589619497918057
-0.0617133744732514	-0.0617133744732514	-0.0617133744732514	-0.0617133744732514	-0.0617133744732514	-0.0617133744732514
-0.0648599336120862	-0.0648599336120862	-0.0648599336120862	-0.0648599336120862	-0.0648599336120862	-0.0648599336120862
-0.0690668185256143	-0.0690668185256143	-0.0690668185256143	-0.0690668185256143	-0.0690668185256143	-0.0690668185256143
-0.0751083003398487	-0.0751083003398487	-0.0751083003398487	-0.0751083003398487	-0.0751083003398487	-0.0751083003398487
-0.0838677299895118	-0.0838677299895118	-0.0838677299895118	-0.0838677299895118	-0.0838677299895118	-0.0838677299895118
-0.0962615049671739	-0.0962615049671739	-0.0962615049671739	-0.0962615049671739	-0.0962615049671739	-0.0962615049671739
-0.113319600091419	-0.113319600091419	-0.113319600091419	-0.113319600091419	-0.113319600091419	-0.113319600091419
-0.135220059290907	-0.135220059290907	-0.135220059290907	-0.135220059290907	-0.135220059290907	-0.135220059290907
-0.160714548083536	-0.160714548083536	-0.160714548083536	-0.160714548083536	-0.160714548083536	-0.160714548083536
-0.187126647654416	-0.187126647654416	-0.187126647654416	-0.187126647654416	-0.187126647654416	-0.187126647654416
-0.210351854855865	-0.210351854855865	-0.210351854855865	-0.210351854855865	-0.210351854855865	-0.210351854855865
-0.225040545814284	-0.225040545814284	-0.225040545814284	-0.225040545814284	-0.225040545814284	-0.225040545814284
-0.225373193215688	-0.225373193215688	-0.225373193215688	-0.225373193215688	-0.225373193215688	-0.225373193215688
-0.204054050334938	-0.204054050334938	-0.204054050334938	-0.204054050334938	-0.204054050334938	-0.204054050334938
-0.155345566988781	-0.155345566988781	-0.155345566988781	-0.155345566988781	-0.155345566988781	-0.155345566988781
-0.0755371710700997	-0.0755371710700997	-0.0755371710700997	-0.0755371710700997	-0.0755371710700997	-0.0755371710700997
0.0370547314520847	0.0370547314520847	0.0370547314520847	0.0370547314520847	0.0370547314520847	0.0370547314520847
0.182086756532614	0.182086756532614	0.182086756532614	0.182086756532614	0.182086756532614	0.182086756532614
0.357307287374384	0.357307287374384	0.357307287374384	0.357307287374384	0.357307287374384	0.357307287374384
0.547636240106363	0.547636240106363	0.547636240106363	0.547636240106363	0.547636240106363	0.547636240106363
0.731905188426918	0.731905188426918	0.731905188426918	0.731905188426918	0.731905188426918	0.731905188426918
0.890232513006716	0.890232513006716	0.890232513006716	0.890232513006716	0.890232513006716	0.890232513006716
1.00403291446131	1.00403291446131	1.00403291446131	1.00403291446131	1.00403291446131	1.00403291446131
1.05601741335115	1.05601741335115	1.05601741335115	1.05601741335115	1.05601741335115	1.05601741335115
1.03163401036062	1.03163401036062	1.03163401036062	1.03163401036062	1.03163401036062	1.03163401036062
0.935451909850087	0.935451909850087	0.935451909850087	0.935451909850087	0.935451909850087	0.935451909850087
0.784993456810224	0.784993456810224	0.784993456810224	0.784993456810224	0.784993456810224	0.784993456810224
0.59866650310613	0.59866650310613	0.59866650310613	0.59866650310613	0.59866650310613	0.59866650310613
0.395531879041163	0.395531879041163	0.395531879041163	0.395531879041163	0.395531879041163	0.395531879041163
0.19530339335695	0.19530339335695	0.19530339335695	0.19530339335695	0.19530339335695	0.19530339335695
0.0172912080082031	0.0172912080082031	0.0172912080082031	0.0172912080082031	0.0172912080082031	0.0172912080082031
-0.12894849104139	-0.12894849104139	-0.12894849104139	-0.12894849104139	-0.12894849104139	-0.12894849104139
-0.239559910788076	-0.239559910788076	-0.239559910788076	-0.239559910788076	-0.239559910788076	-0.239559910788076
-0.313317432561783	-0.313317432561783	-0.313317432561783	-0.313317432561783	-0.313317432561783	-0.313317432561783
-0.351839017234341	-0.351839017234341	-0.351839017234341	-0.351839017234341	-0.351839017234341	-0.351839017234341
-0.359586205219487	-0.359586205219487	-0.359586205219487	-0.359586205219487	-0.359586205219487	-0.359586205219487
-0.343345941207364	-0.343345941207364	-0.343345941207364	-0.343345941207364	-0.343345941207364	-0.343345941207364
-0.310486865328611	-0.310486865328611	-0.310486865328611	-0.310486865328611	-0.310486865328611	-0.310486865328611
-0.269316033400093	-0.269316033400093	-0.269316033400093	-0.269316033400093	-0.269316033400093	-0.269316033400093
-0.226521047015018	-0.226521047015018	-0.226521047015018	-0.226521047015018	-0.226521047015018	-0.226521047015018
-0.186969613929441	-0.186969613929441	-0.186969613929441	-0.186969613929441	-0.186969613929441	-0.186969613929441
-0.153709548062261	-0.153709548062261	-0.153709548062261	-0.153709548062261	-0.153709548062261	-0.153709548062261
-0.127968769495223	-0.127968769495223	-0.127968769495223	-0.127968769495223	-0.127968769495223	-0.127968769495223
-0.109246092658748	-0.109246092658748	-0.109246092658748	-0.109246092658748	-0.109246092658748	-0.109246092658748
-0.0962026478273882	-0.0962026478273882	-0.0962026478273882	-0.0962026478273882	-0.0962026478273882	-0.0962026478273882
-0.0874321364634829	-0.0874321364634829	-0.0874321364634829	-0.0874321364634829	-0.0874321364634829	-0.0874321364634829
-0.0816975220414413	-0.0816975220414413	-0.0816975220414413	-0.0816975220414413	-0.0816975220414413	-0.0816975220414413
-0.0779456068330235	-0.0779456068330235	-0.0779456068330235	-0.0779456068330235	-0.0779456068330235	-0.0779456068330235
-0.0753070319073402	-0.0753070319073402	-0.0753070319073402	-0.0753070319073402	-0.0753070319073402	-0.0753070319073402
-0.0730962771308532	-0.0730962771308532	-0.0730962771308532	-0.0730962771308532	-0.0730962771308532	-0.0730962771308532
-0.0708116611673753	-0.0708116611673753	-0.0708116611673753	-0.0708116611673753	-0.0708116611673753	-0.0708116611673753
-0.0681353414780698	-0.0681353414780698	-0.0681353414780698	-0.0681353414780698	-0.0681353414780698	-0.0681353414780698
-0.0649333143214514	-0.0649333143214514	-0.0649333143214514	-0.0649333143214514	-0.0649333143214514	-0.0649333143214514
-0.0612554147533855	-0.0612554147533855	-0.0612554147533855	-0.0612554147533855	-0.0612554147533855	-0.0612554147533855
-0.0573353166270884	-0.0573353166270884	-0.0573353166270884	-0.0573353166270884	-0.0573353166270884	-0.0573353166270884
-0.0532429886226204	-0.0532429886226204	-0.0532429886226204	-0.0532429886226204	-0.0532429886226204	-0.0532429886226204
-0.0487257770890648	-0.0487257770890648	-0.0487257770890648	-0.0487257770890648	-0.0487257770890648	-0.0487257770890648
-0.0437409632419162	-0.0437409632419162	-0.0437409632419162	-0.0437409632419162	-0.0437409632419162	-0.0437409632419162
-0.0382489189820223	-0.0382489189820223	-0.0382489189820223	-0.0382489189820223	-0.0382489189820223	-0.0382489189820223
-0.0322126038549786	-0.0322126038549786	-0.0322126038549786	-0.0322126038549786	-0.0322126038549786	-0.0322126038549786
-0.025597565051128	-0.025597565051128	-0.025597565051128	-0.025597565051128	-0.025597565051128	-0.025597565051128
-0.0183719374055605	-0.0183719374055605	-0.0183719374055605	-0.0183719374055605	-0.0183719374055605	-0.0183719374055605
