0.594245108577919	0.594245108577919	0.594245108577919	0.594245108577919	0.594245108577919	0.594245108577919
0.565188614507732	0.565188614507732	0.565188614507732	0.565188614507732	0.565188614507732	0.565188614507732
0.489213767722743	0.489213767722743	0.489213767722743	0.489213767722743	0.489213767722743	0.489213767722743
0.377599378855429	0.377599378855429	0.377599378855429	0.377599378855429	0.377599378855429	0.377599378855429
0.245886642348604	0.245886642348604	0.245886642348604	0.245886642348604	0.245886642348604	0.245886642348604
0.108245709545139	0.108245709545139	0.108245709545139	0.108245709545139	0.108245709545139	0.108245709545139
-0.0226772401375502	-0.0226772401375502	-0.0226772401375502	-0.0226772401375502	-0.0226772401375502	-0.0226772401375502
-0.136133121505521	-0.136133121505521	-0.136133121505521	-0.136133121505521	-0.136133121505521	-0.136133121505521
-0.226589572622193	-0.226589572622193	-0.226589572622193	-0.226589572622193	-0.226589572622193	-0.226589572622193
-0.292216366255093	-0.292216366255093	-0.292216366255093	-0.292216366255093	-0.292216366255093	-0.292216366255093
-0.332995897598831	-0.332995897598831	-0.332995897598831	-0.332995897598831	-0.332995897598831	-0.332995897598831
-0.350713244164041	-0.350713244164041	-0.350713244164041	-0.350713244164041	-0.350713244164041	-0.350713244164041
-0.348956165777384	-0.348956165777384	-0.348956165777384	-0.348956165777384	-0.348956165777384	-0.348956165777384
-0.332907000560657	-0.332907000560657	-0.332907000560657	-0.332907000560657	-0.332907000560657	-0.332907000560657
-0.307819435289859	-0.307819435289859	-0.307819435289859	-0.307819435289859	-0.307819435289859	-0.307819435289859
-0.279020759765251	-0.279020759765251	-0.279020759765251	-0.279020759765251	-0.279020759765251	-0.279020759765251
-0.250706819020434	-0.250706819020434	-0.250706819020434	-0.250706819020434	-0.250706819020434	-0.250706819020434
-0.225760030432766	-0.225760030432766	-0.225760030432766	-0.225760030432766	-0.225760030432766	-0.225760030432766
-0.205749383723371	-0.205749383723371	-0.205749383723371	-0.205749383723371	-0.205749383723371	-0.205749383723371
-0.19093044095713	-0.19093044095713	-0.19093044095713	-0.19093044095713	-0.19093044095713	-0.19093044095713
-0.180480752448042	-0.180480752448042	-0.180480752448042	-0.180480752448042	-0.180480752448042	-0.180480752448042
-0.173471388088315	-0.173471388088315	-0.173471388088315	-0.173471388088315	-0.173471388088315	-0.173471388088315
-0.168885919344947	-0.168885919344947	-0.168885919344947	-0.168885919344947	-0.168885919344947	-0.168885919344947
-0.165866892513911	-0.165866892513911	-0.165866892513911	-0.165866892513911	-0.165866892513911	-0.165866892513911
-0.163729845872266	-0.163729845872266	-0.163729845872266	-0.163729845872266	-0.163729845872266	-0.163729845872266
-0.16196330967816	-0.16196330967816	-0.16196330967816	-0.16196330967816	-0.16196330967816	-0.16196330967816
-0.16022880617083	-0.16022880617083	-0.16022880617083	-0.16022880617083	-0.16022880617083	-0.16022880617083
-0.1583608495706	-0.1583608495706	-0.1583608495706	-0.1583608495706	-0.1583608495706	-0.1583608495706
-0.156366878365881	-0.156366878365881	-0.156366878365881	-0.156366878365881	-0.156366878365881	-0.156366878365881
-0.154246780064822	-0.154246780064822	-0.154246780064822	-0.154246780064822	-0.154246780064822	-0.154246780064822
-0.151900456442779	-0.151900456442779	-0.151900456442779	-0.151900456442779	-0.151900456442779	-0.151900456442779
-0.149299185017969	-0.149299185017969	-0.149299185017969	-0.149299185017969	-0.149299185017969	-0.149299185017969
-0.146415053989404	-0.146415053989404	-0.146415053989404	-0.146415053989404	-0.146415053989404	-0.146415053989404
-0.143220962236891	-0.143220962236891	-0.143220962236891	-0.143220962236891	-0.143220962236891	-0.143220962236891
-0.139690619321031	-0.139690619321031	-0.139690619321031	-0.139690619321031	-0.139690619321031	-0.139690619321031
-0.135798545483224	-0.135798545483224	-0.135798545483224	-0.135798545483224	-0.135798545483224	-0.135798545483224
-0.13152007164566	-0.13152007164566	-0.13152007164566	-0.13152007164566	-0.13152007164566	-0.13152007164566
-0.12683133941133	-0.12683133941133	-0.12683133941133	-0.12683133941133	-0.12683133941133	-0.12683133941133
-0.121709301064015	-0.121709301064015	-0.121709301064015	-0.121709301064015	-0.121709301064015	-0.121709301064015
-0.116139436484644	-0.116139436484644	-0.116139436484644	-0.116139436484644	-0.116139436484644	-0.116139436484644
-0.110114342400631	-0.110114342400631	-0.110114342400631	-0.110114342400631	-0.110114342400631	-0.110114342400631
-0.103610894313122	-0.103610894313122	-0.103610894313122	-0.103610894313122	-0.103610894313122	-0.103610894313122
-0.0966128226332431	-0.0966128226332431	-0.0966128226332431	-0.0966128226332431	-0.0966128226332431	-0.0966128226332431
-0.0891115567350501	-0.0891115567350501	-0.0891115567350501	-0.0891115567350501	-0.0891115567350501	-0.0891115567350501
-0.0811062249555328	-0.0811062249555328	-0.0811062249555328	-0.0811062249555328	-0.0811062249555328	-0.0811062249555328
-0.0726036545946128	-0.0726036545946128	-0.0726036545946128	-0.0726036545946128	-0.0726036545946128	-0.0726036545946128
-0.063618371915144	-0.063618371915144	-0.063618371915144	-0.063618371915144	-0.063618371915144	-0.063618371915144
-0.0541726021429128	-0.0541726021429128	-0.0541726021429128	-0.0541726021429128	-0.0541726021429128	-0.0541726021429128
-0.0442962694666378	-0.0442962694666378	-0.0442962694666378	-0.0442962694666378	-0.0442962694666378	-0.0442962694666378
-0.0340269970379699	-0.0340269970379699	-0.0340269970379699	-0.0340269970379699	-0.0340269970379699	-0.0340269970379699
-0.0234101069714924	-0.0234101069714924	-0.0234101069714924	-0.0234101069714924	-0.0234101069714924	-0.0234101069714924
-0.0124986203447208	-0.0124986203447208	-0.0124986203447208	-0.0124986203447208	-0.0124986203447208	-0.0124986203447208
-0.00135325719810281	-0.00135325719810281	-0.00135325719810281	-0.00135325719810281	-0.00135325719810281	-0.00135325719810281
0.00995756346498078	0.00995756346498078	0.00995756346498078	0.00995756346498078	0.00995756346498078	0.00995756346498078
0.0213577236782179	0.0213577236782179	0.0213577236782179	0.0213577236782179	0.0213577236782179	0.0213577236782179
0.0327634065123637	0.0327634065123637	0.0327634065123637	0.0327634065123637	0.0327634065123637	0.0327634065123637
0.0440830960752407	0.0440830960752407	0.0440830960752407	0.0440830960752407	0.0440830960752407	0.0440830960752407
0.0552175775117399	0.0552175775117399	0.0552175775117399	0.0552175775117399	0.0552175775117399	0.0552175775117399
0.0660672298990606	0.0660672298990606	0.0660672298990606	0.0660672298990606	0.0660672298990606	0.0660672298990606
0.0765704084505258	0.0765704084505258	0.0765704084505258	0.0765704084505258	0.0765704084505258	0.0765704084505258
0.0866150692696322	0.0866150692696322	0.0866150692696322	0.0866150692696322	0.0866150692696322	0.0866150692696322
0.096086225708593	0.096086225708593	0.096086225708593	0.096086225708593	0.096086225708593	0.096086225708593
0.104879056837512	0.104879056837512	0.104879056837512	0.104879056837512	0.104879056837512	0.104879056837512
0.112898907444385	0.112898907444385	0.112898907444385	0.112898907444385	0.112898907444385	0.112898907444385
0.120061288035096	0.120061288035096	0.120061288035096	0.120061288035096	0.120061288035096	0.120061288035096
0.126291874833424	0.126291874833424	0.126291874833424	0.126291874833424	0.126291874833424	0.126291874833424
0.131526509781034	0.131526509781034	0.131526509781034	0.131526509781034	0.131526509781034	0.131526509781034
0.135711200537485	0.135711200537485	0.135711200537485	0.135711200537485	0.135711200537485	0.135711200537485
0.138802120480227	0.138802120480227	0.138802120480227	0.138802120480227	0.138802120480227	0.138802120480227
0.140765608704598	0.140765608704598	0.140765608704598	0.140765608704598	0.140765608704598	0.140765608704598
0.141578170023831	0.141578170023831	0.141578170023831	0.141578170023831	0.141578170023831	0.141578170023831
0.141226474969046	0.141226474969046	0.141226474969046	0.141226474969046	0.141226474969046	0.141226474969046
0.139707359789256	0.139707359789256	0.139707359789256	0.139707359789256	0.139707359789256	0.139707359789256
0.137027826451365	0.137027826451365	0.137027826451365	0.137027826451365	0.137027826451365	0.137027826451365
0.133161028886169	0.133161028886169	0.133161028886169	0.133161028886169	0.133161028886169	0.133161028886169
0.128073920669158	0.128073920669158	0.128073920669158	0.128073920669158	0.128073920669158	0.128073920669158
0.121880625966649	0.121880625966649	0.121880625966649	0.121880625966649	0.121880625966649	0.121880625966649
0.114697314651901	0.114697314651901	0.114697314651901	0.114697314651901	0.114697314651901	0.114697314651901
0.106636387361077	0.106636387361077	0.106636387361077	0.106636387361077	0.106636387361077	0.106636387361077
0.0978064754932341	0.0978064754932341	0.0978064754932341	0.0978064754932341	0.0978064754932341	0.0978064754932341
0.0883124412103315	0.0883124412103315	0.0883124412103315	0.0883124412103315	0.0883124412103315	0.0883124412103315
0.0782553774372264	0.0782553774372264	0.0782553774372264	0.0782553774372264	0.0782553774372264	0.0782553774372264
0.0677326078616753	0.0677326078616753	0.0677326078616753	0.0677326078616753	0.0677326078616753	0.0677326078616753
0.0568376869343337	0.0568376869343337	0.0568376869343337	0.0568376869343337	0.0568376869343337	0.0568376869343337
0.0456603998687559	0.0456603998687559	0.0456603998687559	0.0456603998687559	0.0456603998687559	0.0456603998687559
0.0342867626413955	0.0342867626413955	0.0342867626413955	0.0342867626413955	0.0342867626413955	0.0342867626413955
0.0227990219916049	0.0227990219916049	0.0227990219916049	0.0227990219916049	0.0227990219916049	0.0227990219916049
0.0112756554216361	0.0112756554216361	0.0112756554216361	0.0112756554216361	0.0112756554216361	0.0112756554216361
-0.000208628803360589	-0.000208628803360589	-0.000208628803360589	-0.000208628803360589	-0.000208628803360589	-0.000208628803360589
-0.0115828916553355	-0.0115828916553355	-0.0115828916553355	-0.0115828916553355	-0.0115828916553355	-0.0115828916553355
-0.0227799633433399	-0.0227799633433399	-0.0227799633433399	-0.0227799633433399	-0.0227799633433399	-0.0227799633433399
-0.0337364433135258	-0.0337364433135258	-0.0337364433135258	-0.0337364433135258	-0.0337364433135258	-0.0337364433135258
-0.0443927002491467	-0.0443927002491467	-0.0443927002491467	-0.0443927002491467	-0.0443927002491467	-0.0443927002491467
-0.0546928720705567	-0.0546928720705567	-0.0546928720705567	-0.0546928720705567	-0.0546928720705567	-0.0546928720705567
-0.064584865935211	-0.064584865935211	-0.064584865935211	-0.064584865935211	-0.064584865935211	-0.064584865935211
-0.0740203582376656	-0.0740203582376656	-0.0740203582376656	-0.0740203582376656	-0.0740203582376656	-0.0740203582376656
-0.0829547946095774	-0.0829547946095774	-0.0829547946095774	-0.0829547946095774	-0.0829547946095774	-0.0829547946095774
-0.0913473899197048	-0.0913473899197048	-0.0913473899197048	-0.0913473899197048	-0.0913473899197048	-0.0913473899197048
-0.0991611282739064	-0.0991611282739064	-0.0991611282739064	-0.0991611282739064	-0.0991611282739064	-0.0991611282739064
-0.106370772645907	-0.106370772645907	-0.106370772645907	-0.106370772645907	-0.106370772645907	-0.106370772645907
-0.112992317412152	-0.112992317412152	-0.112992317412152	-0.112992317412152	-0.112992317412152	-0.112992317412152
-0.119051559810042	-0.119051559810042	-0.119051559810042	-0.119051559810042	-0.119051559810042	-0.119051559810042
-0.124573991925221	-0.124573991925221	-0.124573991925221	-0.124573991925221	-0.124573991925221	-0.124573991925221
-0.129584906913741	-0.129584906913741	-0.129584906913741	-0.129584906913741	-0.129584906913741	-0.129584906913741
-0.134109399002057	-0.134109399002057	-0.134109399002057	-0.134109399002057	-0.134109399002057	-0.134109399002057
-0.138172363487034	-0.138172363487034	-0.138172363487034	-0.138172363487034	-0.138172363487034	-0.138172363487034
-0.141798496735939	-0.141798496735939	-0.141798496735939	-0.141798496735939	-0.141798496735939	-0.141798496735939
-0.145012296186451	-0.145012296186451	-0.145012296186451	-0.145012296186451	-0.145012296186451	-0.145012296186451
-0.14783806034665	-0.14783806034665	-0.14783806034665	-0.14783806034665	-0.14783806034665	-0.14783806034665
-0.150299888795025	-0.150299888795025	-0.150299888795025	-0.150299888795025	-0.150299888795025	-0.150299888795025
-0.152421682180471	-0.152421682180471	-0.152421682180471	-0.152421682180471	-0.152421682180471	-0.152421682180471
-0.15422714222229	-0.15422714222229	-0.15422714222229	-0.15422714222229	-0.15422714222229	-0.15422714222229
-0.155739771710189	-0.155739771710189	-0.155739771710189	-0.155739771710189	-0.155739771710189	-0.155739771710189
-0.156982874504282	-0.156982874504282	-0.156982874504282	-0.156982874504282	-0.156982874504282	-0.156982874504282
-0.15797955553509	-0.15797955553509	-0.15797955553509	-0.15797955553509	-0.15797955553509	-0.15797955553509
-0.15875272080354	-0.15875272080354	-0.15875272080354	-0.15875272080354	-0.15875272080354	-0.15875272080354
-0.159325077380964	-0.159325077380964	-0.159325077380964	-0.159325077380964	-0.159325077380964	-0.159325077380964
-0.159719133409102	-0.159719133409102	-0.159719133409102	-0.159719133409102	-0.159719133409102	-0.159719133409102
-0.1599571981001	-0.1599571981001	-0.1599571981001	-0.1599571981001	-0.1599571981001	-0.1599571981001
-0.160061381736511	-0.160061381736511	-0.160061381736511	-0.160061381736511	-0.160061381736511	-0.160061381736511
-0.160053595671292	-0.160053595671292	-0.160053595671292	-0.160053595671292	-0.160053595671292	-0.160053595671292
-0.159955552327808	-0.159955552327808	-0.159955552327808	-0.159955552327808	-0.159955552327808	-0.159955552327808
-0.159786375225246	-0.159786375225246	-0.159786375225246	-0.159786375225246	-0.159786375225246	-0.159786375225246
-0.159518932972352	-0.159518932972352	-0.159518932972352	-0.159518932972352	-0.159518932972352	-0.159518932972352
-0.159153244206491	-0.159153244206491	-0.159153244206491	-0.159153244206491	-0.159153244206491	-0.159153244206491
-0.158706512156486	-0.158706512156486	-0.158706512156486	-0.158706512156486	-0.158706512156486	-0.158706512156486
-0.158194501096699	-0.158194501096699	-0.158194501096699	-0.158194501096699	-0.158194501096699	-0.158194501096699
-0.157631536347031	-0.157631536347031	-0.157631536347031	-0.157631536347031	-0.157631536347031	-0.157631536347031
-0.157030504272917	-0.157030504272917	-0.157030504272917	-0.157030504272917	-0.157030504272917	-0.157030504272917
-0.156402852285331	-0.156402852285331	-0.156402852285331	-0.156402852285331	-0.156402852285331	-0.156402852285331
-0.155758588840784	-0.155758588840784	-0.155758588840784	-0.155758588840784	-0.155758588840784	-0.155758588840784
-0.155106283441322	-0.155106283441322	-0.155106283441322	-0.155106283441322	-0.155106283441322	-0.155106283441322
-0.154453066634531	-0.154453066634531	-0.154453066634531	-0.154453066634531	-0.154453066634531	-0.154453066634531
-0.153804630013532	-0.153804630013532	-0.153804630013532	-0.153804630013532	-0.153804630013532	-0.153804630013532
-0.153165226216984	-0.153165226216984	-0.153165226216984	-0.153165226216984	-0.153165226216984	-0.153165226216984
-0.152537668929082	-0.152537668929082	-0.152537668929082	-0.152537668929082	-0.152537668929082	-0.152537668929082
-0.15192333287956	-0.15192333287956	-0.15192333287956	-0.15192333287956	-0.15192333287956	-0.15192333287956
-0.151322153843687	-0.151322153843687	-0.151322153843687	-0.151322153843687	-0.151322153843687	-0.151322153843687
-0.150732628642271	-0.150732628642271	-0.150732628642271	-0.150732628642271	-0.150732628642271	-0.150732628642271
-0.150151815141654	-0.150151815141654	-0.150151815141654	-0.150151815141654	-0.150151815141654	-0.150151815141654
-0.14957533225372	-0.14957533225372	-0.14957533225372	-0.14957533225372	-0.14957533225372	-0.14957533225372
-0.148997359935884	-0.148997359935884	-0.148997359935884	-0.148997359935884	-0.148997359935884	-0.148997359935884
-0.148410675178551	-0.148410675178551	-0.148410675178551	-0.148410675178551	-0.148410675178551	-0.148410675178551
-0.147816543389356	-0.147816543389356	-0.147816543389356	-0.147816543389356	-0.147816543389356	-0.147816543389356
-0.14722074252073	-0.14722074252073	-0.14722074252073	-0.14722074252073	-0.14722074252073	-0.14722074252073
-0.146624446330285	-0.146624446330285	-0.146624446330285	-0.146624446330285	-0.146624446330285	-0.146624446330285
-0.146028674730484	-0.146028674730484	-0.146028674730484	-0.146028674730484	-0.146028674730484	-0.146028674730484
-0.14543429378864	-0.14543429378864	-0.14543429378864	-0.14543429378864	-0.14543429378864	-0.14543429378864
-0.144842015726915	-0.144842015726915	-0.144842015726915	-0.144842015726915	-0.144842015726915	-0.144842015726915
-0.14425239892232	-0.14425239892232	-0.14425239892232	-0.14425239892232	-0.14425239892232	-0.14425239892232
-0.143665847906718	-0.143665847906718	-0.143665847906718	-0.143665847906718	-0.143665847906718	-0.143665847906718
-0.143082613366819	-0.143082613366819	-0.143082613366819	-0.143082613366819	-0.143082613366819	-0.143082613366819
-0.142502792144184	-0.142502792144184	-0.142502792144184	-0.142502792144184	-0.142502792144184	-0.142502792144184
-0.141926327235222	-0.141926327235222	-0.141926327235222	-0.141926327235222	-0.141926327235222	-0.141926327235222
-0.141353007791195	-0.141353007791195	-0.141353007791195	-0.141353007791195	-0.141353007791195	-0.141353007791195
-0.14078246911821	-0.14078246911821	-0.14078246911821	-0.14078246911821	-0.14078246911821	-0.14078246911821
-0.140214192677229	-0.140214192677229	-0.140214192677229	-0.140214192677229	-0.140214192677229	-0.140214192677229
-0.139647506084058	-0.139647506084058	-0.139647506084058	-0.139647506084058	-0.139647506084058	-0.139647506084058
-0.139081583109357	-0.139081583109357	-0.139081583109357	-0.139081583109357	-0.139081583109357	-0.139081583109357
-0.138515443678633	-0.138515443678633	-0.138515443678633	-0.138515443678633	-0.138515443678633	-0.138515443678633
-0.137947953872244	-0.137947953872244	-0.137947953872244	-0.137947953872244	-0.137947953872244	-0.137947953872244
-0.137377825925397	-0.137377825925397	-0.137377825925397	-0.137377825925397	-0.137377825925397	-0.137377825925397
-0.13680361822815	-0.13680361822815	-0.13680361822815	-0.13680361822815	-0.13680361822815	-0.13680361822815
-0.136223735325408	-0.136223735325408	-0.136223735325408	-0.136223735325408	-0.136223735325408	-0.136223735325408
-0.135636427916927	-0.135636427916927	-0.135636427916927	-0.135636427916927	-0.135636427916927	-0.135636427916927
-0.135039792857313	-0.135039792857313	-0.135039792857313	-0.135039792857313	-0.135039792857313	-0.135039792857313
-0.134431773156022	-0.134431773156022	-0.134431773156022	-0.134431773156022	-0.134431773156022	-0.134431773156022
-0.133810157977359	-0.133810157977359	-0.133810157977359	-0.133810157977359	-0.133810157977359	-0.133810157977359
-0.133172571766455	-0.133172571766455	-0.133172571766455	-0.133172571766455	-0.133172571766455	-0.133172571766455
-0.132506995966452	-0.132506995966452	-0.132506995966452	-0.132506995966452	-0.132506995966452	-0.132506995966452
-0.131801599698369	-0.131801599698369	-0.131801599698369	-0.131801599698369	-0.131801599698369	-0.131801599698369
-0.131048155138301	-0.131048155138301	-0.131048155138301	-0.131048155138301	-0.131048155138301	-0.131048155138301
-0.130232851990083	-0.130232851990083	-0.130232851990083	-0.130232851990083	-0.130232851990083	-0.130232851990083
-0.129336297485288	-0.129336297485288	-0.129336297485288	-0.129336297485288	-0.129336297485288	-0.129336297485288
-0.128333516383232	-0.128333516383232	-0.128333516383232	-0.128333516383232	-0.128333516383232	-0.128333516383232
-0.127193950970966	-0.127193950970966	-0.127193950970966	-0.127193950970966	-0.127193950970966	-0.127193950970966
-0.125881461063285	-0.125881461063285	-0.125881461063285	-0.125881461063285	-0.125881461063285	-0.125881461063285
-0.124354324002721	-0.124354324002721	-0.124354324002721	-0.124354324002721	-0.124354324002721	-0.124354324002721
-0.122565234659546	-0.122565234659546	-0.122565234659546	-0.122565234659546	-0.122565234659546	-0.122565234659546
-0.120461305431772	-0.120461305431772	-0.120461305431772	-0.120461305431772	-0.120461305431772	-0.120461305431772
-0.117984066245151	-0.117984066245151	-0.117984066245151	-0.117984066245151	-0.117984066245151	-0.117984066245151
-0.115069464553172	-0.115069464553172	-0.115069464553172	-0.115069464553172	-0.115069464553172	-0.115069464553172
-0.111655779731835	-0.111655779731835	-0.111655779731835	-0.111655779731835	-0.111655779731835	-0.111655779731835
-0.107716610633154	-0.107716610633154	-0.107716610633154	-0.107716610633154	-0.107716610633154	-0.107716610633154
-0.103152330546353	-0.103152330546353	-0.103152330546353	-0.103152330546353	-0.103152330546353	-0.103152330546353
-0.0978710390113338	-0.0978710390113338	-0.0978710390113338	-0.0978710390113338	-0.0978710390113338	-0.0978710390113338
-0.0918073740975828	-0.0918073740975828	-0.0918073740975828	-0.0918073740975828	-0.0918073740975828	-0.0918073740975828
-0.0849225124041675	-0.0849225124041675	-0.0849225124041675	-0.0849225124041675	-0.0849225124041675	-0.0849225124041675
-0.0772041690597384	-0.0772041690597384	-0.0772041690597384	-0.0772041690597384	-0.0772041690597384	-0.0772041690597384
-0.0686665977225286	-0.0686665977225286	-0.0686665977225286	-0.0686665977225286	-0.0686665977225286	-0.0686665977225286
-0.0593505905803535	-0.0593505905803535	-0.0593505905803535	-0.0593505905803535	-0.0593505905803535	-0.0593505905803535
-0.0493234783506114	-0.0493234783506114	-0.0493234783506114	-0.0493234783506114	-0.0493234783506114	-0.0493234783506114
-0.0386791302802826	-0.0386791302802826	-0.0386791302802826	-0.0386791302802826	-0.0386791302802826	-0.0386791302802826
-0.0275379541459305	-0.0275379541459305	-0.0275379541459305	-0.0275379541459305	-0.0275379541459305	-0.0275379541459305
-0.0160468962537005	-0.0160468962537005	-0.0160468962537005	-0.0160468962537005	-0.0160468962537005	-0.0160468962537005
-0.00437944143932095	-0.00437944143932095	-0.00437944143932095	-0.00437944143932095	-0.00437944143932095	-0.00437944143932095
0.00729558166776306	0.00729558166776306	0.00729558166776306	0.00729558166776306	0.00729558166776306	0.00729558166776306
0.0187538728015904	0.0187538728015904	0.0187538728015904	0.0187538728015904	0.0187538728015904	0.0187538728015904
0.0296743568938012	0.0296743568938012	0.0296743568938012	0.0296743568938012	0.0296743568938012	0.0296743568938012
0.0397687118000466	0.0397687118000466	0.0397687118000466	0.0397687118000466	0.0397687118000466	0.0397687118000466
0.0487840250618864	0.0487840250618864	0.0487840250618864	0.0487840250618864	0.0487840250618864	0.0487840250618864
0.0565027939067889	0.0565027939067889	0.0565027939067889	0.0565027939067889	0.0565027939067889	0.0565027939067889
0.0627429252481312	0.0627429252481312	0.0627429252481312	0.0627429252481312	0.0627429252481312	0.0627429252481312
0.067357735685199	0.067357735685199	0.067357735685199	0.067357735685199	0.067357735685199	0.067357735685199
0.0702359515031868	0.0702359515031868	0.0702359515031868	0.0702359515031868	0.0702359515031868	0.0702359515031868
0.0713017086731975	0.0713017086731975	0.0713017086731975	0.0713017086731975	0.0713017086731975	0.0713017086731975
0.070514552852243	0.070514552852243	0.070514552852243	0.070514552852243	0.070514552852243	0.070514552852243
0.0678694393832436	0.0678694393832436	0.0678694393832436	0.0678694393832436	0.0678694393832436	0.0678694393832436
0.0633480012711663	0.0633480012711663	0.0633480012711663	0.0633480012711663	0.0633480012711663	0.0633480012711663
0.0569901059409279	0.0569901059409279	0.0569901059409279	0.0569901059409279	0.0569901059409279	0.0569901059409279
0.0491100468273136	0.0491100468273136	0.0491100468273136	0.0491100468273136	0.0491100468273136	0.0491100468273136
0.0400163573466372	0.0400163573466372	0.0400163573466372	0.0400163573466372	0.0400163573466372	0.0400163573466372
0.0299964889360833	0.0299964889360833	0.0299964889360833	0.0299964889360833	0.0299964889360833	0.0299964889360833
0.0193168110537068	0.0193168110537068	0.0193168110537068	0.0193168110537068	0.0193168110537068	0.0193168110537068
0.00822261117843265	0.00822261117843265	0.00822261117843265	0.00822261117843265	0.00822261117843265	0.00822261117843265
-0.00306190518994343	-0.00306190518994343	-0.00306190518994343	-0.00306190518994343	-0.00306190518994343	-0.00306190518994343
-0.0143336145307555	-0.0143336145307555	-0.0143336145307555	-0.0143336145307555	-0.0143336145307555	-0.0143336145307555
-0.0254104753024672	-0.0254104753024672	-0.0254104753024672	-0.0254104753024672	-0.0254104753024672	-0.0254104753024672
-0.0361315279426721	-0.0361315279426721	-0.0361315279426721	-0.0361315279426721	-0.0361315279426721	-0.0361315279426721
-0.0463568948680926	-0.0463568948680926	-0.0463568948680926	-0.0463568948680926	-0.0463568948680926	-0.0463568948680926
-0.0559677804745817	-0.0559677804745817	-0.0559677804745817	-0.0559677804745817	-0.0559677804745817	-0.0559677804745817
-0.0648664711371214	-0.0648664711371214	-0.0648664711371214	-0.0648664711371214	-0.0648664711371214	-0.0648664711371214
-0.0729763352098237	-0.0729763352098237	-0.0729763352098237	-0.0729763352098237	-0.0729763352098237	-0.0729763352098237
-0.0802418230259296	-0.0802418230259296	-0.0802418230259296	-0.0802418230259296	-0.0802418230259296	-0.0802418230259296
-0.0866284668978106	-0.0866284668978106	-0.0866284668978106	-0.0866284668978106	-0.0866284668978106	-0.0866284668978106
-0.0921552508997395	-0.0921552508997395	-0.0921552508997395	-0.0921552508997395	-0.0921552508997395	-0.0921552508997395
-0.096955681228868	-0.096955681228868	-0.096955681228868	-0.096955681228868	-0.096955681228868	-0.096955681228868
-0.100990360238928	-0.100990360238928	-0.100990360238928	-0.100990360238928	-0.100990360238928	-0.100990360238928
-0.104267320946369	-0.104267320946369	-0.104267320946369	-0.104267320946369	-0.104267320946369	-0.104267320946369
-0.106874772909326	-0.106874772909326	-0.106874772909326	-0.106874772909326	-0.106874772909326	-0.106874772909326
-0.108981102227614	-0.108981102227614	-0.108981102227614	-0.108981102227614	-0.108981102227614	-0.108981102227614
-0.110834871542737	-0.110834871542737	-0.110834871542737	-0.110834871542737	-0.110834871542737	-0.110834871542737
-0.11276482003788	-0.11276482003788	-0.11276482003788	-0.11276482003788	-0.11276482003788	-0.11276482003788
-0.115179863437915	-0.115179863437915	-0.115179863437915	-0.115179863437915	-0.115179863437915	-0.115179863437915
-0.118569094009395	-0.118569094009395	-0.118569094009395	-0.118569094009395	-0.118569094009395	-0.118569094009395
-0.123483151390633	-0.123483151390633	-0.123483151390633	-0.123483151390633	-0.123483151390633	-0.123483151390633
-0.130561600817912	-0.130561600817912	-0.130561600817912	-0.130561600817912	-0.130561600817912	-0.130561600817912
-0.140762843038485	-0.140762843038485	-0.140762843038485	-0.140762843038485	-0.140762843038485	-0.140762843038485
-0.154353419261414	-0.154353419261414	-0.154353419261414	-0.154353419261414	-0.154353419261414	-0.154353419261414
-0.1707393978686	-0.1707393978686	-0.1707393978686	-0.1707393978686	-0.1707393978686	-0.1707393978686
-0.188466374414789	-0.188466374414789	-0.188466374414789	-0.188466374414789	-0.188466374414789	-0.188466374414789
-0.205219471627566	-0.205219471627566	-0.205219471627566	-0.205219471627566	-0.205219471627566	-0.205219471627566
-0.217994824557476	-0.217994824557476	-0.217994824557476	-0.217994824557476	-0.217994824557476	-0.217994824557476
-0.222454716550509	-0.222454716550509	-0.222454716550509	-0.222454716550509	-0.222454716550509	-0.222454716550509
-0.214093819257295	-0.214093819257295	-0.214093819257295	-0.214093819257295	-0.214093819257295	-0.214093819257295
-0.189171114834379	-0.189171114834379	-0.189171114834379	-0.189171114834379	-0.189171114834379	-0.189171114834379
-0.14471079144403	-0.14471079144403	-0.14471079144403	-0.14471079144403	-0.14471079144403	-0.14471079144403
-0.0785022432542428	-0.0785022432542428	-0.0785022432542428	-0.0785022432542428	-0.0785022432542428	-0.0785022432542428
0.0108365655448307	0.0108365655448307	0.0108365655448307	0.0108365655448307	0.0108365655448307	0.0108365655448307
0.121015190103382	0.121015190103382	0.121015190103382	0.121015190103382	0.121015190103382	0.121015190103382
0.244692428015544	0.244692428015544	0.244692428015544	0.244692428015544	0.244692428015544	0.244692428015544
0.37193149595887	0.37193149595887	0.37193149595887	0.37193149595887	0.37193149595887	0.37193149595887
0.490332755693786	0.490332755693786	0.490332755693786	0.490332755693786	0.490332755693786	0.490332755693786
0.585033714063587	0.585033714063587	0.585033714063587	0.585033714063587	0.585033714063587	0.585033714063587
0.639951247919084	0.639951247919084	0.639951247919084	0.639951247919084	0.639951247919084	0.639951247919084
0.646493082447203	0.646493082447203	0.646493082447203	0.646493082447203	0.646493082447203	0.646493082447203
0.602053495409892	0.602053495409892	0.602053495409892	0.602053495409892	0.602053495409892	0.602053495409892
0.51100749432281	0.51100749432281	0.51100749432281	0.51100749432281	0.51100749432281	0.51100749432281
0.385062259648598	0.385062259648598	0.385062259648598	0.385062259648598	0.385062259648598	0.385062259648598
0.243257144796881	0.243257144796881	0.243257144796881	0.243257144796881	0.243257144796881	0.243257144796881
0.106779951040465	0.106779951040465	0.106779951040465	0.106779951040465	0.106779951040465	0.106779951040465
-0.0168031955214587	-0.0168031955214587	-0.0168031955214587	-0.0168031955214587	-0.0168031955214587	-0.0168031955214587
-0.119882630918426	-0.119882630918426	-0.119882630918426	-0.119882630918426	-0.119882630918426	-0.119882630918426
-0.197897187514766	-0.197897187514766	-0.197897187514766	-0.197897187514766	-0.197897187514766	-0.197897187514766
-0.249693675687355	-0.249693675687355	-0.249693675687355	-0.249693675687355	-0.249693675687355	-0.249693675687355
-0.27661852387517	-0.27661852387517	-0.27661852387517	-0.27661852387517	-0.27661852387517	-0.27661852387517
-0.282193502760643	-0.282193502760643	-0.282193502760643	-0.282193502760643	-0.282193502760643	-0.282193502760643
-0.271639226901074	-0.271639226901074	-0.271639226901074	-0.271639226901074	-0.271639226901074	-0.271639226901074
-0.250022883840141	-0.250022883840141	-0.250022883840141	-0.250022883840141	-0.250022883840141	-0.250022883840141
-0.222245510191076	-0.222245510191076	-0.222245510191076	-0.222245510191076	-0.222245510191076	-0.222245510191076
-0.193041991636659	-0.193041991636659	-0.193041991636659	-0.193041991636659	-0.193041991636659	-0.193041991636659
-0.166830645382549	-0.166830645382549	-0.166830645382549	-0.166830645382549	-0.166830645382549	-0.166830645382549
-0.145565850605301	-0.145565850605301	-0.145565850605301	-0.145565850605301	-0.145565850605301	-0.145565850605301
-0.129278337351004	-0.129278337351004	-0.129278337351004	-0.129278337351004	-0.129278337351004	-0.129278337351004
-0.117625053630543	-0.117625053630543	-0.117625053630543	-0.117625053630543	-0.117625053630543	-0.117625053630543
-0.109907911373359	-0.109907911373359	-0.109907911373359	-0.109907911373359	-0.109907911373359	-0.109907911373359
-0.105073786427449	-0.105073786427449	-0.105073786427449	-0.105073786427449	-0.105073786427449	-0.105073786427449
-0.101817482839581	-0.101817482839581	-0.101817482839581	-0.101817482839581	-0.101817482839581	-0.101817482839581
-0.0994426752694495	-0.0994426752694495	-0.0994426752694495	-0.0994426752694495	-0.0994426752694495	-0.0994426752694495
-0.0975515254621087	-0.0975515254621087	-0.0975515254621087	-0.0975515254621087	-0.0975515254621087	-0.0975515254621087
-0.0958262509200766	-0.0958262509200766	-0.0958262509200766	-0.0958262509200766	-0.0958262509200766	-0.0958262509200766
-0.0940486614792815	-0.0940486614792815	-0.0940486614792815	-0.0940486614792815	-0.0940486614792815	-0.0940486614792815
-0.0921001593090611	-0.0921001593090611	-0.0921001593090611	-0.0921001593090611	-0.0921001593090611	-0.0921001593090611
-0.0899594992728673	-0.0899594992728673	-0.0899594992728673	-0.0899594992728673	-0.0899594992728673	-0.0899594992728673
-0.0876024068063429	-0.0876024068063429	-0.0876024068063429	-0.0876024068063429	-0.0876024068063429	-0.0876024068063429
-0.0849843002728263	-0.0849843002728263	-0.0849843002728263	-0.0849843002728263	-0.0849843002728263	-0.0849843002728263
-0.0820765047448055	-0.0820765047448055	-0.0820765047448055	-0.0820765047448055	-0.0820765047448055	-0.0820765047448055
-0.0788509834951483	-0.0788509834951483	-0.0788509834951483	-0.0788509834951483	-0.0788509834951483	-0.0788509834951483
-0.0752803379971014	-0.0752803379971014	-0.0752803379971014	-0.0752803379971014	-0.0752803379971014	-0.0752803379971014
-0.0713378079242916	-0.0713378079242916	-0.0713378079242916	-0.0713378079242916	-0.0713378079242916	-0.0713378079242916
-0.0669972711507249	-0.0669972711507249	-0.0669972711507249	-0.0669972711507249	-0.0669972711507249	-0.0669972711507249
-0.0622332437507866	-0.0622332437507866	-0.0622332437507866	-0.0622332437507866	-0.0622332437507866	-0.0622332437507866
-0.0570299271128774	-0.0570299271128774	-0.0570299271128774	-0.0570299271128774	-0.0570299271128774	-0.0570299271128774
-0.0513676425322874	-0.0513676425322874	-0.0513676425322874	-0.0513676425322874	-0.0513676425322874	-0.0513676425322874
-0.0452204264875744	-0.0452204264875744	-0.0452204264875744	-0.0452204264875744	-0.0452204264875744	-0.0452204264875744
-0.0385700022371777	-0.0385700022371777	-0.0385700022371777	-0.0385700022371777	-0.0385700022371777	-0.0385700022371777
-0.0314057819033959	-0.0314057819033959	-0.0314057819033959	-0.0314057819033959	-0.0314057819033959	-0.0314057819033959
-0.0237248664723879	-0.0237248664723879	-0.0237248664723879	-0.0237248664723879	-0.0237248664723879	-0.0237248664723879
-0.0155320457941721	-0.0155320457941721	-0.0155320457941721	-0.0155320457941721	-0.0155320457941721	-0.0155320457941721
-0.00683979858262668	-0.00683979858262668	-0.00683979858262668	-0.00683979858262668	-0.00683979858262668	-0.00683979858262668
0.00233170758451084	0.00233170758451084	0.00233170758451084	0.00233170758451084	0.00233170758451084	0.00233170758451084
0.0119546162656426	0.0119546162656426	0.0119546162656426	0.0119546162656426	0.0119546162656426	0.0119546162656426
0.0219933821553115	0.0219933821553115	0.0219933821553115	0.0219933821553115	0.0219933821553115	0.0219933821553115
0.0324047710842005	0.0324047710842005	0.0324047710842005	0.0324047710842005	0.0324047710842005	0.0324047710842005
0.0431378600191328	0.0431378600191328	0.0431378600191328	0.0431378600191328	0.0431378600191328	0.0431378600191328
0.0541340370630721	0.0541340370630721	0.0541340370630721	0.0541340370630721	0.0541340370630721	0.0541340370630721
0.0653296980016292	0.0653296980016292	0.0653296980016292	0.0653296980016292	0.0653296980016292	0.0653296980016292
0.0766850970265203	0.0766850970265203	0.0766850970265203	0.0766850970265203	0.0766850970265203	0.0766850970265203
0.0881001192043503	0.0881001192043503	0.0881001192043503	0.0881001192043503	0.0881001192043503	0.0881001192043503
0.099457992412039	0.099457992412039	0.099457992412039	0.099457992412039	0.099457992412039	0.099457992412039
0.110646387128381	0.110646387128381	0.110646387128381	0.110646387128381	0.110646387128381	0.110646387128381
0.121557416434044	0.121557416434044	0.121557416434044	0.121557416434044	0.121557416434044	0.121557416434044
0.132087636011572	0.132087636011572	0.132087636011572	0.132087636011572	0.132087636011572	0.132087636011572
0.142138044145382	0.142138044145382	0.142138044145382	0.142138044145382	0.142138044145382	0.142138044145382
0.151614081721764	0.151614081721764	0.151614081721764	0.151614081721764	0.151614081721764	0.151614081721764
0.160425632228886	0.160425632228886	0.160425632228886	0.160425632228886	0.160425632228886	0.160425632228886
0.168487021756785	0.168487021756785	0.168487021756785	0.168487021756785	0.168487021756785	0.168487021756785
0.175717018997378	0.175717018997378	0.175717018997378	0.175717018997378	0.175717018997378	0.175717018997378
0.182038835244452	0.182038835244452	0.182038835244452	0.182038835244452	0.182038835244452	0.182038835244452
0.18738012439367	0.18738012439367	0.18738012439367	0.18738012439367	0.18738012439367	0.18738012439367
0.19167298294257	0.19167298294257	0.19167298294257	0.19167298294257	0.19167298294257	0.19167298294257
0.194853949990563	0.194853949990563	0.194853949990563	0.194853949990563	0.194853949990563	0.194853949990563
0.196864007238934	0.196864007238934	0.196864007238934	0.196864007238934	0.196864007238934	0.196864007238934
0.197641843707519	0.197641843707519	0.197641843707519	0.197641843707519	0.197641843707519	0.197641843707519
0.197139634193484	0.197139634193484	0.197139634193484	0.197139634193484	0.197139634193484	0.197139634193484
0.19539711189777	0.19539711189777	0.19539711189777	0.19539711189777	0.19539711189777	0.19539711189777
0.192466217126735	0.192466217126735	0.192466217126735	0.192466217126735	0.192466217126735	0.192466217126735
0.18840280464061	0.18840280464061	0.18840280464061	0.18840280464061	0.18840280464061	0.18840280464061
0.1832666436535	0.1832666436535	0.1832666436535	0.1832666436535	0.1832666436535	0.1832666436535
0.177121417833382	0.177121417833382	0.177121417833382	0.177121417833382	0.177121417833382	0.177121417833382
0.170034725302108	0.170034725302108	0.170034725302108	0.170034725302108	0.170034725302108	0.170034725302108
0.162078078635404	0.162078078635404	0.162078078635404	0.162078078635404	0.162078078635404	0.162078078635404
0.153326904862867	0.153326904862867	0.153326904862867	0.153326904862867	0.153326904862867	0.153326904862867
0.143860545467972	0.143860545467972	0.143860545467972	0.143860545467972	0.143860545467972	0.143860545467972
0.133762256388063	0.133762256388063	0.133762256388063	0.133762256388063	0.133762256388063	0.133762256388063
0.12311920801436	0.12311920801436	0.12311920801436	0.12311920801436	0.12311920801436	0.12311920801436
0.112022485191957	0.112022485191957	0.112022485191957	0.112022485191957	0.112022485191957	0.112022485191957
0.10056708721982	0.10056708721982	0.10056708721982	0.10056708721982	0.10056708721982	0.10056708721982
0.0888519278507894	0.0888519278507894	0.0888519278507894	0.0888519278507894	0.0888519278507894	0.0888519278507894
0.0769798352915789	0.0769798352915789	0.0769798352915789	0.0769798352915789	0.0769798352915789	0.0769798352915789
0.0650575522027765	0.0650575522027765	0.0650575522027765	0.0650575522027765	0.0650575522027765	0.0650575522027765
0.0531957356988429	0.0531957356988429	0.0531957356988429	0.0531957356988429	0.0531957356988429	0.0531957356988429
0.0415089573481132	0.0415089573481132	0.0415089573481132	0.0415089573481132	0.0415089573481132	0.0415089573481132
0.030115703172795	0.030115703172795	0.030115703172795	0.030115703172795	0.030115703172795	0.030115703172795
0.0191054492865075	0.0191054492865075	0.0191054492865075	0.0191054492865075	0.0191054492865075	0.0191054492865075
0.00849129797927201	0.00849129797927201	0.00849129797927201	0.00849129797927201	0.00849129797927201	0.00849129797927201
-0.00168729799689044	-0.00168729799689044	-0.00168729799689044	-0.00168729799689044	-0.00168729799689044	-0.00168729799689044
-0.0113950104403207	-0.0113950104403207	-0.0113950104403207	-0.0113950104403207	-0.0113950104403207	-0.0113950104403207
-0.0206022322830987	-0.0206022322830987	-0.0206022322830987	-0.0206022322830987	-0.0206022322830987	-0.0206022322830987
-0.0292850775910447	-0.0292850775910447	-0.0292850775910447	-0.0292850775910447	-0.0292850775910447	-0.0292850775910447
-0.0374253815637183	-0.0374253815637183	-0.0374253815637183	-0.0374253815637183	-0.0374253815637183	-0.0374253815637183
-0.045010700534419	-0.045010700534419	-0.045010700534419	-0.045010700534419	-0.045010700534419	-0.045010700534419
-0.0520343119701858	-0.0520343119701858	-0.0520343119701858	-0.0520343119701858	-0.0520343119701858	-0.0520343119701858
-0.0584952144717977	-0.0584952144717977	-0.0584952144717977	-0.0584952144717977	-0.0584952144717977	-0.0584952144717977
-0.0643981277737731	-0.0643981277737731	-0.0643981277737731	-0.0643981277737731	-0.0643981277737731	-0.0643981277737731
-0.0697534927443701	-0.0697534927443701	-0.0697534927443701	-0.0697534927443701	-0.0697534927443701	-0.0697534927443701
-0.0745774713855871	-0.0745774713855871	-0.0745774713855871	-0.0745774713855871	-0.0745774713855871	-0.0745774713855871
-0.0788919468331614	-0.0788919468331614	-0.0788919468331614	-0.0788919468331614	-0.0788919468331614	-0.0788919468331614
-0.0827245233565704	-0.0827245233565704	-0.0827245233565704	-0.0827245233565704	-0.0827245233565704	-0.0827245233565704
-0.0861085263590313	-0.0861085263590313	-0.0861085263590313	-0.0861085263590313	-0.0861085263590313	-0.0861085263590313
-0.0890830023775009	-0.0890830023775009	-0.0890830023775009	-0.0890830023775009	-0.0890830023775009	-0.0890830023775009
-0.0916925133673606	-0.0916925133673606	-0.0916925133673606	-0.0916925133673606	-0.0916925133673606	-0.0916925133673606
-0.0939598906939781	-0.0939598906939781	-0.0939598906939781	-0.0939598906939781	-0.0939598906939781	-0.0939598906939781
-0.0959037199044128	-0.0959037199044128	-0.0959037199044128	-0.0959037199044128	-0.0959037199044128	-0.0959037199044128
-0.0975542361637803	-0.0975542361637803	-0.0975542361637803	-0.0975542361637803	-0.0975542361637803	-0.0975542361637803
-0.0989400301927281	-0.0989400301927281	-0.0989400301927281	-0.0989400301927281	-0.0989400301927281	-0.0989400301927281
-0.100088048267435	-0.100088048267435	-0.100088048267435	-0.100088048267435	-0.100088048267435	-0.100088048267435
-0.101023592219612	-0.101023592219612	-0.101023592219612	-0.101023592219612	-0.101023592219612	-0.101023592219612
-0.1017703194365	-0.1017703194365	-0.1017703194365	-0.1017703194365	-0.1017703194365	-0.1017703194365
-0.102350242860873	-0.102350242860873	-0.102350242860873	-0.102350242860873	-0.102350242860873	-0.102350242860873
-0.102783730991037	-0.102783730991037	-0.102783730991037	-0.102783730991037	-0.102783730991037	-0.102783730991037
-0.103089507880828	-0.103089507880828	-0.103089507880828	-0.103089507880828	-0.103089507880828	-0.103089507880828
-0.103284653139615	-0.103284653139615	-0.103284653139615	-0.103284653139615	-0.103284653139615	-0.103284653139615
-0.103384601932296	-0.103384601932296	-0.103384601932296	-0.103384601932296	-0.103384601932296	-0.103384601932296
-0.103403144979305	-0.103403144979305	-0.103403144979305	-0.103403144979305	-0.103403144979305	-0.103403144979305
-0.103352428556603	-0.103352428556603	-0.103352428556603	-0.103352428556603	-0.103352428556603	-0.103352428556603
-0.103242954495685	-0.103242954495685	-0.103242954495685	-0.103242954495685	-0.103242954495685	-0.103242954495685
-0.103083580183577	-0.103083580183577	-0.103083580183577	-0.103083580183577	-0.103083580183577	-0.103083580183577
-0.10287910250582	-0.10287910250582	-0.10287910250582	-0.10287910250582	-0.10287910250582	-0.10287910250582
-0.1026250992457	-0.1026250992457	-0.1026250992457	-0.1026250992457	-0.1026250992457	-0.1026250992457
-0.10232872406084	-0.10232872406084	-0.10232872406084	-0.10232872406084	-0.10232872406084	-0.10232872406084
-0.101998126181404	-0.101998126181404	-0.101998126181404	-0.101998126181404	-0.101998126181404	-0.101998126181404
-0.101640748944364	-0.101640748944364	-0.101640748944364	-0.101640748944364	-0.101640748944364	-0.101640748944364
-0.101263329793505	-0.101263329793505	-0.101263329793505	-0.101263329793505	-0.101263329793505	-0.101263329793505
-0.100871900279423	-0.100871900279423	-0.100871900279423	-0.100871900279423	-0.100871900279423	-0.100871900279423
-0.100471786059524	-0.100471786059524	-0.100471786059524	-0.100471786059524	-0.100471786059524	-0.100471786059524
-0.100067606898024	-0.100067606898024	-0.100067606898024	-0.100067606898024	-0.100067606898024	-0.100067606898024
-0.0996632766659509	-0.0996632766659509	-0.0996632766659509	-0.0996632766659509	-0.0996632766659509	-0.0996632766659509
-0.0992620033411422	-0.0992620033411422	-0.0992620033411422	-0.0992620033411422	-0.0992620033411422	-0.0992620033411422
-0.0988662890082469	-0.0988662890082469	-0.0988662890082469	-0.0988662890082469	-0.0988662890082469	-0.0988662890082469
-0.0984779298587246	-0.0984779298587246	-0.0984779298587246	-0.0984779298587246	-0.0984779298587246	-0.0984779298587246
-0.0980980161908453	-0.0980980161908453	-0.0980980161908453	-0.0980980161908453	-0.0980980161908453	-0.0980980161908453
-0.0977269324096902	-0.0977269324096902	-0.0977269324096902	-0.0977269324096902	-0.0977269324096902	-0.0977269324096902
-0.0973643570271507	-0.0973643570271507	-0.0973643570271507	-0.0973643570271507	-0.0973643570271507	-0.0973643570271507
-0.0970092626619293	-0.0970092626619293	-0.0970092626619293	-0.0970092626619293	-0.0970092626619293	-0.0970092626619293
-0.096659916039539	-0.096659916039539	-0.096659916039539	-0.096659916039539	-0.096659916039539	-0.096659916039539
-0.0963138779923035	-0.0963138779923035	-0.0963138779923035	-0.0963138779923035	-0.0963138779923035	-0.0963138779923035
-0.0959680034593574	-0.0959680034593574	-0.0959680034593574	-0.0959680034593574	-0.0959680034593574	-0.0959680034593574
-0.0956195066252973	-0.0956195066252973	-0.0956195066252973	-0.0956195066252973	-0.0956195066252973	-0.0956195066252973
-0.0952716919647349	-0.0952716919647349	-0.0952716919647349	-0.0952716919647349	-0.0952716919647349	-0.0952716919647349
-0.0949259887265885	-0.0949259887265885	-0.0949259887265885	-0.0949259887265885	-0.0949259887265885	-0.0949259887265885
-0.0945830611631314	-0.0945830611631314	-0.0945830611631314	-0.0945830611631314	-0.0945830611631314	-0.0945830611631314
-0.0942434175868515	-0.0942434175868515	-0.0942434175868515	-0.0942434175868515	-0.0942434175868515	-0.0942434175868515
-0.0939074103704506	-0.0939074103704506	-0.0939074103704506	-0.0939074103704506	-0.0939074103704506	-0.0939074103704506
-0.0935752359468452	-0.0935752359468452	-0.0935752359468452	-0.0935752359468452	-0.0935752359468452	-0.0935752359468452
-0.093246934809166	-0.093246934809166	-0.093246934809166	-0.093246934809166	-0.093246934809166	-0.093246934809166
-0.0929223915107578	-0.0929223915107578	-0.0929223915107578	-0.0929223915107578	-0.0929223915107578	-0.0929223915107578
-0.0926013346651801	-0.0926013346651801	-0.0926013346651801	-0.0926013346651801	-0.0926013346651801	-0.0926013346651801
-0.0922833369462063	-0.0922833369462063	-0.0922833369462063	-0.0922833369462063	-0.0922833369462063	-0.0922833369462063
-0.0919678150878245	-0.0919678150878245	-0.0919678150878245	-0.0919678150878245	-0.0919678150878245	-0.0919678150878245
-0.091654029884237	-0.091654029884237	-0.091654029884237	-0.091654029884237	-0.091654029884237	-0.091654029884237
-0.0913410861898603	-0.0913410861898603	-0.0913410861898603	-0.0913410861898603	-0.0913410861898603	-0.0913410861898603
-0.0910279329193253	-0.0910279329193253	-0.0910279329193253	-0.0910279329193253	-0.0910279329193253	-0.0910279329193253
-0.0907133630474772	-0.0907133630474772	-0.0907133630474772	-0.0907133630474772	-0.0907133630474772	-0.0907133630474772
-0.0903960136093756	-0.0903960136093756	-0.0903960136093756	-0.0903960136093756	-0.0903960136093756	-0.0903960136093756
-0.0900743657002943	-0.0900743657002943	-0.0900743657002943	-0.0900743657002943	-0.0900743657002943	-0.0900743657002943
-0.0897467444757215	-0.0897467444757215	-0.0897467444757215	-0.0897467444757215	-0.0897467444757215	-0.0897467444757215
-0.089411271862519	-0.089411271862519	-0.089411271862519	-0.089411271862519	-0.089411271862519	-0.089411271862519
-0.0890575798252736	-0.0890575798252736	-0.0890575798252736	-0.0890575798252736	-0.0890575798252736	-0.0890575798252736
-0.0886796815882036	-0.0886796815882036	-0.0886796815882036	-0.0886796815882036	-0.0886796815882036	-0.0886796815882036
-0.0882745906055671	-0.0882745906055671	-0.0882745906055671	-0.0882745906055671	-0.0882745906055671	-0.0882745906055671
-0.0878339000389265	-0.0878339000389265	-0.0878339000389265	-0.0878339000389265	-0.0878339000389265	-0.0878339000389265
-0.0873437827571497	-0.0873437827571497	-0.0873437827571497	-0.0873437827571497	-0.0873437827571497	-0.0873437827571497
-0.0867849913364086	-0.0867849913364086	-0.0867849913364086	-0.0867849913364086	-0.0867849913364086	-0.0867849913364086
-0.0861328580601807	-0.0861328580601807	-0.0861328580601807	-0.0861328580601807	-0.0861328580601807	-0.0861328580601807
-0.0853572949192479	-0.0853572949192479	-0.0853572949192479	-0.0853572949192479	-0.0853572949192479	-0.0853572949192479
-0.0844227936116973	-0.0844227936116973	-0.0844227936116973	-0.0844227936116973	-0.0844227936116973	-0.0844227936116973
-0.0832884255429204	-0.0832884255429204	-0.0832884255429204	-0.0832884255429204	-0.0832884255429204	-0.0832884255429204
-0.081907841825614	-0.081907841825614	-0.081907841825614	-0.081907841825614	-0.081907841825614	-0.081907841825614
-0.0802292732797795	-0.0802292732797795	-0.0802292732797795	-0.0802292732797795	-0.0802292732797795	-0.0802292732797795
-0.0781958140529699	-0.0781958140529699	-0.0781958140529699	-0.0781958140529699	-0.0781958140529699	-0.0781958140529699
-0.0757808289441051	-0.0757808289441051	-0.0757808289441051	-0.0757808289441051	-0.0757808289441051	-0.0757808289441051
-0.0729016616377756	-0.0729016616377756	-0.0729016616377756	-0.0729016616377756	-0.0729016616377756	-0.0729016616377756
-0.0694478274419259	-0.0694478274419259	-0.0694478274419259	-0.0694478274419259	-0.0694478274419259	-0.0694478274419259
-0.0653292642431224	-0.0653292642431224	-0.0653292642431224	-0.0653292642431224	-0.0653292642431224	-0.0653292642431224
-0.0604763325065533	-0.0604763325065533	-0.0604763325065533	-0.0604763325065533	-0.0604763325065533	-0.0604763325065533
-0.0548398152760292	-0.0548398152760292	-0.0548398152760292	-0.0548398152760292	-0.0548398152760292	-0.0548398152760292
-0.0483909181739825	-0.0483909181739825	-0.0483909181739825	-0.0483909181739825	-0.0483909181739825	-0.0483909181739825
-0.0411212694014678	-0.0411212694014678	-0.0411212694014678	-0.0411212694014678	-0.0411212694014678	-0.0411212694014678
-0.0330429197381613	-0.0330429197381613	-0.0330429197381613	-0.0330429197381613	-0.0330429197381613	-0.0330429197381613
-0.0241883425423617	-0.0241883425423617	-0.0241883425423617	-0.0241883425423617	-0.0241883425423617	-0.0241883425423617
-0.0146104337509895	-0.0146104337509895	-0.0146104337509895	-0.0146104337509895	-0.0146104337509895	-0.0146104337509895
-0.00438251187958721	-0.00438251187958721	-0.00438251187958721	-0.00438251187958721	-0.00438251187958721	-0.00438251187958721
0.00640265055122297	0.00640265055122297	0.00640265055122297	0.00640265055122297	0.00640265055122297	0.00640265055122297
0.0177269442982118	0.0177269442982118	0.0177269442982118	0.0177269442982118	0.0177269442982118	0.0177269442982118
0.0293516771908078	0.0293516771908078	0.0293516771908078	0.0293516771908078	0.0293516771908078	0.0293516771908078
0.0409221920098591	0.0409221920098591	0.0409221920098591	0.0409221920098591	0.0409221920098591	0.0409221920098591
0.052115576138936	0.052115576138936	0.052115576138936	0.052115576138936	0.052115576138936	0.052115576138936
0.0626406615643322	0.0626406615643322	0.0626406615643322	0.0626406615643322	0.0626406615643322	0.0626406615643322
0.0722380248750636	0.0722380248750636	0.0722380248750636	0.0722380248750636	0.0722380248750636	0.0722380248750636
0.080679987262869	0.080679987262869	0.080679987262869	0.080679987262869	0.080679987262869	0.080679987262869
0.0877706145222103	0.0877706145222103	0.0877706145222103	0.0877706145222103	0.0877706145222103	0.0877706145222103
0.0933457170502715	0.0933457170502715	0.0933457170502715	0.0933457170502715	0.0933457170502715	0.0933457170502715
0.0972728498469601	0.0972728498469601	0.0972728498469601	0.0972728498469601	0.0972728498469601	0.0972728498469601
0.0994513125149057	0.0994513125149057	0.0994513125149057	0.0994513125149057	0.0994513125149057	0.0994513125149057
0.0998121492594611	0.0998121492594611	0.0998121492594611	0.0998121492594611	0.0998121492594611	0.0998121492594611
0.0983181488887018	0.0983181488887018	0.0983181488887018	0.0983181488887018	0.0983181488887018	0.0983181488887018
0.0949638448134257	0.0949638448134257	0.0949638448134257	0.0949638448134257	0.0949638448134257	0.0949638448134257
0.0897755150471538	0.0897755150471538	0.0897755150471538	0.0897755150471538	0.0897755150471538	0.0897755150471538
0.0828376962497232	0.0828376962497232	0.0828376962497232	0.0828376962497232	0.0828376962497232	0.0828376962497232
0.0744061904659785	0.0744061904659785	0.0744061904659785	0.0744061904659785	0.0744061904659785	0.0744061904659785
0.0647796412682781	0.0647796412682781	0.0647796412682781	0.0647796412682781	0.0647796412682781	0.0647796412682781
0.0542405777932354	0.0542405777932354	0.0542405777932354	0.0542405777932354	0.0542405777932354	0.0542405777932354
0.0430553775390796	0.0430553775390796	0.0430553775390796	0.0430553775390796	0.0430553775390796	0.0430553775390796
0.0314742663656567	0.0314742663656567	0.0314742663656567	0.0314742663656567	0.0314742663656567	0.0314742663656567
0.019731318494429	0.019731318494429	0.019731318494429	0.019731318494429	0.019731318494429	0.019731318494429
0.00804445650847535	0.00804445650847535	0.00804445650847535	0.00804445650847535	0.00804445650847535	0.00804445650847535
-0.00338454864750909	-0.00338454864750909	-0.00338454864750909	-0.00338454864750909	-0.00338454864750909	-0.00338454864750909
-0.0143700776672127	-0.0143700776672127	-0.0143700776672127	-0.0143700776672127	-0.0143700776672127	-0.0143700776672127
-0.0247426628827072	-0.0247426628827072	-0.0247426628827072	-0.0247426628827072	-0.0247426628827072	-0.0247426628827072
-0.0343489882644481	-0.0343489882644481	-0.0343489882644481	-0.0343489882644481	-0.0343489882644481	-0.0343489882644481
-0.0431230315593231	-0.0431230315593231	-0.0431230315593231	-0.0431230315593231	-0.0431230315593231	-0.0431230315593231
-0.0510457015325985	-0.0510457015325985	-0.0510457015325985	-0.0510457015325985	-0.0510457015325985	-0.0510457015325985
-0.0580692614145326	-0.0580692614145326	-0.0580692614145326	-0.0580692614145326	-0.0580692614145326	-0.0580692614145326
-0.0641820468333903	-0.0641820468333903	-0.0641820468333903	-0.0641820468333903	-0.0641820468333903	-0.0641820468333903
-0.0694084725240014	-0.0694084725240014	-0.0694084725240014	-0.0694084725240014	-0.0694084725240014	-0.0694084725240014
-0.0738090323277613	-0.0738090323277613	-0.0738090323277613	-0.0738090323277613	-0.0738090323277613	-0.0738090323277613
-0.0774802991926306	-0.0774802991926306	-0.0774802991926306	-0.0774802991926306	-0.0774802991926306	-0.0774802991926306
-0.0805549251731349	-0.0805549251731349	-0.0805549251731349	-0.0805549251731349	-0.0805549251731349	-0.0805549251731349
-0.0832016414303655	-0.0832016414303655	-0.0832016414303655	-0.0832016414303655	-0.0832016414303655	-0.0832016414303655
-0.0856252582319787	-0.0856252582319787	-0.0856252582319787	-0.0856252582319787	-0.0856252582319787	-0.0856252582319787
-0.0880666649521963	-0.0880666649521963	-0.0880666649521963	-0.0880666649521963	-0.0880666649521963	-0.0880666649521963
-0.0908025885400199	-0.0908025885400199	-0.0908025885400199	-0.0908025885400199	-0.0908025885400199	-0.0908025885400199
-0.0942082635494935	-0.0942082635494935	-0.0942082635494935	-0.0942082635494935	-0.0942082635494935	-0.0942082635494935
-0.0992744601262869	-0.0992744601262869	-0.0992744601262869	-0.0992744601262869	-0.0992744601262869	-0.0992744601262869
-0.106891902630623	-0.106891902630623	-0.106891902630623	-0.106891902630623	-0.106891902630623	-0.106891902630623
-0.117542952619845	-0.117542952619845	-0.117542952619845	-0.117542952619845	-0.117542952619845	-0.117542952619845
-0.131301608848415	-0.131301608848415	-0.131301608848415	-0.131301608848415	-0.131301608848415	-0.131301608848415
-0.147833509165537	-0.147833509165537	-0.147833509165537	-0.147833509165537	-0.147833509165537	-0.147833509165537
-0.166130830203503	-0.166130830203503	-0.166130830203503	-0.166130830203503	-0.166130830203503	-0.166130830203503
-0.183198244012476	-0.183198244012476	-0.183198244012476	-0.183198244012476	-0.183198244012476	-0.183198244012476
-0.195290013564318	-0.195290013564318	-0.195290013564318	-0.195290013564318	-0.195290013564318	-0.195290013564318
-0.198491026570402	-0.198491026570402	-0.198491026570402	-0.198491026570402	-0.198491026570402	-0.198491026570402
-0.188716795481615	-0.188716795481615	-0.188716795481615	-0.188716795481615	-0.188716795481615	-0.188716795481615
-0.161713457488356	-0.161713457488356	-0.161713457488356	-0.161713457488356	-0.161713457488356	-0.161713457488356
-0.114044668283275	-0.114044668283275	-0.114044668283275	-0.114044668283275	-0.114044668283275	-0.114044668283275
-0.0431938371048258	-0.0431938371048258	-0.0431938371048258	-0.0431938371048258	-0.0431938371048258	-0.0431938371048258
0.0511207002313556	0.0511207002313556	0.0511207002313556	0.0511207002313556	0.0511207002313556	0.0511207002313556
0.165217587790766	0.165217587790766	0.165217587790766	0.165217587790766	0.165217587790766	0.165217587790766
0.29145081920688	0.29145081920688	0.29145081920688	0.29145081920688	0.29145081920688	0.29145081920688
0.418452091775293	0.418452091775293	0.418452091775293	0.418452091775293	0.418452091775293	0.418452091775293
0.531040043679751	0.531040043679751	0.531040043679751	0.531040043679751	0.531040043679751	0.531040043679751
0.611312181708992	0.611312181708992	0.611312181708992	0.611312181708992	0.611312181708992	0.611312181708992
0.647270763117113	0.647270763117113	0.647270763117113	0.647270763117113	0.647270763117113	0.647270763117113
0.633733785565812	0.633733785565812	0.633733785565812	0.633733785565812	0.633733785565812	0.633733785565812
0.572334987124381	0.572334987124381	0.572334987124381	0.572334987124381	0.572334987124381	0.572334987124381
0.470852516724721	0.470852516724721	0.470852516724721	0.470852516724721	0.470852516724721	0.470852516724721
0.343358631682179	0.343358631682179	0.343358631682179	0.343358631682179	0.343358631682179	0.343358631682179
0.205852460254295	0.205852460254295	0.205852460254295	0.205852460254295	0.205852460254295	0.205852460254295
0.0715166032325563	0.0715166032325563	0.0715166032325563	0.0715166032325563	0.0715166032325563	0.0715166032325563
-0.0493558924148612	-0.0493558924148612	-0.0493558924148612	-0.0493558924148612	-0.0493558924148612	-0.0493558924148612
-0.149351640224659	-0.149351640224659	-0.149351640224659	-0.149351640224659	-0.149351640224659	-0.149351640224659
-0.22424313503841	-0.22424313503841	-0.22424313503841	-0.22424313503841	-0.22424313503841	-0.22424313503841
-0.274219856082081	-0.274219856082081	-0.274219856082081	-0.274219856082081	-0.274219856082081	-0.274219856082081
-0.301126165868064	-0.301126165868064	-0.301126165868064	-0.301126165868064	-0.301126165868064	-0.301126165868064
-0.307748866431387	-0.307748866431387	-0.307748866431387	-0.307748866431387	-0.307748866431387	-0.307748866431387
-0.297817199329711	-0.297817199329711	-0.297817199329711	-0.297817199329711	-0.297817199329711	-0.297817199329711
-0.27600284564333	-0.27600284564333	-0.27600284564333	-0.27600284564333	-0.27600284564333	-0.27600284564333
-0.247919925975174	-0.247919925975174	-0.247919925975174	-0.247919925975174	-0.247919925975174	-0.247919925975174
-0.219255472482444	-0.219255472482444	-0.219255472482444	-0.219255472482444	-0.219255472482444	-0.219255472482444
-0.192870909463237	-0.192870909463237	-0.192870909463237	-0.192870909463237	-0.192870909463237	-0.192870909463237
-0.170588442971465	-0.170588442971465	-0.170588442971465	-0.170588442971465	-0.170588442971465	-0.170588442971465
-0.15333123696446	-0.15333123696446	-0.15333123696446	-0.15333123696446	-0.15333123696446	-0.15333123696446
-0.14110597763558	-0.14110597763558	-0.14110597763558	-0.14110597763558	-0.14110597763558	-0.14110597763558
-0.133002873414212	-0.133002873414212	-0.133002873414212	-0.133002873414212	-0.133002873414212	-0.133002873414212
-0.12760799396449	-0.12760799396449	-0.12760799396449	-0.12760799396449	-0.12760799396449	-0.12760799396449
-0.124110501407801	-0.124110501407801	-0.124110501407801	-0.124110501407801	-0.124110501407801	-0.124110501407801
-0.121785076984758	-0.121785076984758	-0.121785076984758	-0.121785076984758	-0.121785076984758	-0.121785076984758
-0.12006824617104	-0.12006824617104	-0.12006824617104	-0.12006824617104	-0.12006824617104	-0.12006824617104
-0.118562153766336	-0.118562153766336	-0.118562153766336	-0.118562153766336	-0.118562153766336	-0.118562153766336
-0.117034563894346	-0.117034563894346	-0.117034563894346	-0.117034563894346	-0.117034563894346	-0.117034563894346
-0.115416165038782	-0.115416165038782	-0.115416165038782	-0.115416165038782	-0.115416165038782	-0.115416165038782
-0.113656062062819	-0.113656062062819	-0.113656062062819	-0.113656062062819	-0.113656062062819	-0.113656062062819
-0.111693831255697	-0.111693831255697	-0.111693831255697	-0.111693831255697	-0.111693831255697	-0.111693831255697
-0.109499122471866	-0.109499122471866	-0.109499122471866	-0.109499122471866	-0.109499122471866	-0.109499122471866
-0.10704272260885	-0.10704272260885	-0.10704272260885	-0.10704272260885	-0.10704272260885	-0.10704272260885
-0.104296555607252	-0.104296555607252	-0.104296555607252	-0.104296555607252	-0.104296555607252	-0.104296555607252
-0.101233682450747	-0.101233682450747	-0.101233682450747	-0.101233682450747	-0.101233682450747	-0.101233682450747
-0.0978283011660881	-0.0978283011660881	-0.0978283011660881	-0.0978283011660881	-0.0978283011660881	-0.0978283011660881
-0.0940557468231045	-0.0940557468231045	-0.0940557468231045	-0.0940557468231045	-0.0940557468231045	-0.0940557468231045
-0.0898945939047988	-0.0898945939047988	-0.0898945939047988	-0.0898945939047988	-0.0898945939047988	-0.0898945939047988
-0.0853400532765637	-0.0853400532765637	-0.0853400532765637	-0.0853400532765637	-0.0853400532765637	-0.0853400532765637
-0.0803625230380172	-0.0803625230380172	-0.0803625230380172	-0.0803625230380172	-0.0803625230380172	-0.0803625230380172
-0.0749314984716362	-0.0749314984716362	-0.0749314984716362	-0.0749314984716362	-0.0749314984716362	-0.0749314984716362
-0.069023593475796	-0.069023593475796	-0.069023593475796	-0.069023593475796	-0.069023593475796	-0.069023593475796
-0.0626225405647701	-0.0626225405647701	-0.0626225405647701	-0.0626225405647701	-0.0626225405647701	-0.0626225405647701
-0.0557191908687299	-0.0557191908687299	-0.0557191908687299	-0.0557191908687299	-0.0557191908687299	-0.0557191908687299
-0.0483115141337451	-0.0483115141337451	-0.0483115141337451	-0.0483115141337451	-0.0483115141337451	-0.0483115141337451
-0.0404045987217835	-0.0404045987217835	-0.0404045987217835	-0.0404045987217835	-0.0404045987217835	-0.0404045987217835
-0.0320106516107108	-0.0320106516107108	-0.0320106516107108	-0.0320106516107108	-0.0320106516107108	-0.0320106516107108
-0.0231489983942911	-0.0231489983942911	-0.0231489983942911	-0.0231489983942911	-0.0231489983942911	-0.0231489983942911
-0.0138460832821866	-0.0138460832821866	-0.0138460832821866	-0.0138460832821866	-0.0138460832821866	-0.0138460832821866
-0.00413546909995727	-0.00413546909995727	-0.00413546909995727	-0.00413546909995727	-0.00413546909995727	-0.00413546909995727
0.00594216271093811	0.00594216271093811	0.00594216271093811	0.00594216271093811	0.00594216271093811	0.00594216271093811
0.0163390120931435	0.0163390120931435	0.0163390120931435	0.0163390120931435	0.0163390120931435	0.0163390120931435
0.027000160373404	0.027000160373404	0.027000160373404	0.027000160373404	0.027000160373404	0.027000160373404
0.0378635702625668	0.0378635702625668	0.0378635702625668	0.0378635702625668	0.0378635702625668	0.0378635702625668
0.0488600858555815	0.0488600858555815	0.0488600858555815	0.0488600858555815	0.0488600858555815	0.0488600858555815
0.0599134326314987	0.0599134326314987	0.0599134326314987	0.0599134326314987	0.0599134326314987	0.0599134326314987
0.0709637199149848	0.0709637199149848	0.0709637199149848	0.0709637199149848	0.0709637199149848	0.0709637199149848
0.0819342585309957	0.0819342585309957	0.0819342585309957	0.0819342585309957	0.0819342585309957	0.0819342585309957
0.0927065468256493	0.0927065468256493	0.0927065468256493	0.0927065468256493	0.0927065468256493	0.0927065468256493
0.103168224618635	0.103168224618635	0.103168224618635	0.103168224618635	0.103168224618635	0.103168224618635
0.113213327364317	0.113213327364317	0.113213327364317	0.113213327364317	0.113213327364317	0.113213327364317
0.122742286151736	0.122742286151736	0.122742286151736	0.122742286151736	0.122742286151736	0.122742286151736
0.131661927704609	0.131661927704609	0.131661927704609	0.131661927704609	0.131661927704609	0.131661927704609
0.139885474381329	0.139885474381329	0.139885474381329	0.139885474381329	0.139885474381329	0.139885474381329
0.147332544174964	0.147332544174964	0.147332544174964	0.147332544174964	0.147332544174964	0.147332544174964
0.153929150713259	0.153929150713259	0.153929150713259	0.153929150713259	0.153929150713259	0.153929150713259
0.159607703258634	0.159607703258634	0.159607703258634	0.159607703258634	0.159607703258634	0.159607703258634
0.164307006708184	0.164307006708184	0.164307006708184	0.164307006708184	0.164307006708184	0.164307006708184
0.167972261593683	0.167972261593683	0.167972261593683	0.167972261593683	0.167972261593683	0.167972261593683
0.170555064081579	0.170555064081579	0.170555064081579	0.170555064081579	0.170555064081579	0.170555064081579
0.172013405972994	0.172013405972994	0.172013405972994	0.172013405972994	0.172013405972994	0.172013405972994
0.172311674703731	0.172311674703731	0.172311674703731	0.172311674703731	0.172311674703731	0.172311674703731
0.171411104094435	0.171411104094435	0.171411104094435	0.171411104094435	0.171411104094435	0.171411104094435
0.169244989338785	0.169244989338785	0.169244989338785	0.169244989338785	0.169244989338785	0.169244989338785
0.165867079163394	0.165867079163394	0.165867079163394	0.165867079163394	0.165867079163394	0.165867079163394
0.161353464131265	0.161353464131265	0.161353464131265	0.161353464131265	0.161353464131265	0.161353464131265
0.15578085417198	0.15578085417198	0.15578085417198	0.15578085417198	0.15578085417198	0.15578085417198
0.149226578581705	0.149226578581705	0.149226578581705	0.149226578581705	0.149226578581705	0.149226578581705
0.141768586023183	0.141768586023183	0.141768586023183	0.141768586023183	0.141768586023183	0.141768586023183
0.133485444525743	0.133485444525743	0.133485444525743	0.133485444525743	0.133485444525743	0.133485444525743
0.124456341485292	0.124456341485292	0.124456341485292	0.124456341485292	0.124456341485292	0.124456341485292
0.114761083664319	0.114761083664319	0.114761083664319	0.114761083664319	0.114761083664319	0.114761083664319
0.104480097191895	0.104480097191895	0.104480097191895	0.104480097191895	0.104480097191895	0.104480097191895
0.093694427563672	0.093694427563672	0.093694427563672	0.093694427563672	0.093694427563672	0.093694427563672
0.0824857396418826	0.0824857396418826	0.0824857396418826	0.0824857396418826	0.0824857396418826	0.0824857396418826
0.0709363176553414	0.0709363176553414	0.0709363176553414	0.0709363176553414	0.0709363176553414	0.0709363176553414
0.059129065199444	0.059129065199444	0.059129065199444	0.059129065199444	0.059129065199444	0.059129065199444
0.047147505236167	0.047147505236167	0.047147505236167	0.047147505236167	0.047147505236167	0.047147505236167
0.0350757800940689	0.0350757800940689	0.0350757800940689	0.0350757800940689	0.0350757800940689	0.0350757800940689
0.0229986514682891	0.0229986514682891	0.0229986514682891	0.0229986514682891	0.0229986514682891	0.0229986514682891
0.0110015004205478	0.0110015004205478	0.0110015004205478	0.0110015004205478	0.0110015004205478	0.0110015004205478
-0.00082967262085254	-0.00082967262085254	-0.00082967262085254	-0.00082967262085254	-0.00082967262085254	-0.00082967262085254
-0.0124082478610288	-0.0124082478610288	-0.0124082478610288	-0.0124082478610288	-0.0124082478610288	-0.0124082478610288
-0.023646986138517	-0.023646986138517	-0.023646986138517	-0.023646986138517	-0.023646986138517	-0.023646986138517
-0.0344580289252709	-0.0344580289252709	-0.0344580289252709	-0.0344580289252709	-0.0344580289252709	-0.0344580289252709
-0.0447593274316846	-0.0447593274316846	-0.0447593274316846	-0.0447593274316846	-0.0447593274316846	-0.0447593274316846
-0.0545452142898225	-0.0545452142898225	-0.0545452142898225	-0.0545452142898225	-0.0545452142898225	-0.0545452142898225
-0.0638134561997402	-0.0638134561997402	-0.0638134561997402	-0.0638134561997402	-0.0638134561997402	-0.0638134561997402
-0.0725553368079528	-0.0725553368079528	-0.0725553368079528	-0.0725553368079528	-0.0725553368079528	-0.0725553368079528
-0.0807652682223386	-0.0807652682223386	-0.0807652682223386	-0.0807652682223386	-0.0807652682223386	-0.0807652682223386
-0.088440791012139	-0.088440791012139	-0.088440791012139	-0.088440791012139	-0.088440791012139	-0.088440791012139
-0.0955825742079586	-0.0955825742079586	-0.0955825742079586	-0.0955825742079586	-0.0955825742079586	-0.0955825742079586
-0.102194415301765	-0.102194415301765	-0.102194415301765	-0.102194415301765	-0.102194415301765	-0.102194415301765
-0.10828324024689	-0.10828324024689	-0.10828324024689	-0.10828324024689	-0.10828324024689	-0.10828324024689
-0.113859103458028	-0.113859103458028	-0.113859103458028	-0.113859103458028	-0.113859103458028	-0.113859103458028
-0.118935187811236	-0.118935187811236	-0.118935187811236	-0.118935187811236	-0.118935187811236	-0.118935187811236
-0.123527804643934	-0.123527804643934	-0.123527804643934	-0.123527804643934	-0.123527804643934	-0.123527804643934
-0.127656393754907	-0.127656393754907	-0.127656393754907	-0.127656393754907	-0.127656393754907	-0.127656393754907
-0.131343523404302	-0.131343523404302	-0.131343523404302	-0.131343523404302	-0.131343523404302	-0.131343523404302
-0.13461489031363	-0.13461489031363	-0.13461489031363	-0.13461489031363	-0.13461489031363	-0.13461489031363
-0.137499319665763	-0.137499319665763	-0.137499319665763	-0.137499319665763	-0.137499319665763	-0.137499319665763
-0.140028765104939	-0.140028765104939	-0.140028765104939	-0.140028765104939	-0.140028765104939	-0.140028765104939
-0.142238308736757	-0.142238308736757	-0.142238308736757	-0.142238308736757	-0.142238308736757	-0.142238308736757
-0.144166161128182	-0.144166161128182	-0.144166161128182	-0.144166161128182	-0.144166161128182	-0.144166161128182
-0.145851744968112	-0.145851744968112	-0.145851744968112	-0.145851744968112	-0.145851744968112	-0.145851744968112
-0.147310089603883	-0.147310089603883	-0.147310089603883	-0.147310089603883	-0.147310089603883	-0.147310089603883
-0.148559118608215	-0.148559118608215	-0.148559118608215	-0.148559118608215	-0.148559118608215	-0.148559118608215
-0.14962035700118	-0.14962035700118	-0.14962035700118	-0.14962035700118	-0.14962035700118	-0.14962035700118
-0.150513847573591	-0.150513847573591	-0.150513847573591	-0.150513847573591	-0.150513847573591	-0.150513847573591
-0.151258150887002	-0.151258150887002	-0.151258150887002	-0.151258150887002	-0.151258150887002	-0.151258150887002
-0.15187034527371	-0.15187034527371	-0.15187034527371	-0.15187034527371	-0.15187034527371	-0.15187034527371
-0.152366026836752	-0.152366026836752	-0.152366026836752	-0.152366026836752	-0.152366026836752	-0.152366026836752
-0.152759309449908	-0.152759309449908	-0.152759309449908	-0.152759309449908	-0.152759309449908	-0.152759309449908
-0.153062824757699	-0.153062824757699	-0.153062824757699	-0.153062824757699	-0.153062824757699	-0.153062824757699
-0.153287722175388	-0.153287722175388	-0.153287722175388	-0.153287722175388	-0.153287722175388	-0.153287722175388
-0.15344366888898	-0.15344366888898	-0.15344366888898	-0.15344366888898	-0.15344366888898	-0.15344366888898
-0.15353884985522	-0.15353884985522	-0.15353884985522	-0.15353884985522	-0.15353884985522	-0.15353884985522
-0.153579967801598	-0.153579967801598	-0.153579967801598	-0.153579967801598	-0.153579967801598	-0.153579967801598
-0.153572243226342	-0.153572243226342	-0.153572243226342	-0.153572243226342	-0.153572243226342	-0.153572243226342
-0.153519414398424	-0.153519414398424	-0.153519414398424	-0.153519414398424	-0.153519414398424	-0.153519414398424
-0.153423737357557	-0.153423737357557	-0.153423737357557	-0.153423737357557	-0.153423737357557	-0.153423737357557
-0.15328681226952	-0.15328681226952	-0.15328681226952	-0.15328681226952	-0.15328681226952	-0.15328681226952
-0.153137503880389	-0.153137503880389	-0.153137503880389	-0.153137503880389	-0.153137503880389	-0.153137503880389
-0.152990200897336	-0.152990200897336	-0.152990200897336	-0.152990200897336	-0.152990200897336	-0.152990200897336
-0.152844887347149	-0.152844887347149	-0.152844887347149	-0.152844887347149	-0.152844887347149	-0.152844887347149
-0.152701547243744	-0.152701547243744	-0.152701547243744	-0.152701547243744	-0.152701547243744	-0.152701547243744
-0.152560164588165	-0.152560164588165	-0.152560164588165	-0.152560164588165	-0.152560164588165	-0.152560164588165
-0.152420723368587	-0.152420723368587	-0.152420723368587	-0.152420723368587	-0.152420723368587	-0.152420723368587
-0.152283207560314	-0.152283207560314	-0.152283207560314	-0.152283207560314	-0.152283207560314	-0.152283207560314
-0.152147601125779	-0.152147601125779	-0.152147601125779	-0.152147601125779	-0.152147601125779	-0.152147601125779
-0.152013888014544	-0.152013888014544	-0.152013888014544	-0.152013888014544	-0.152013888014544	-0.152013888014544
-0.1518820521633	-0.1518820521633	-0.1518820521633	-0.1518820521633	-0.1518820521633	-0.1518820521633
-0.151752077495867	-0.151752077495867	-0.151752077495867	-0.151752077495867	-0.151752077495867	-0.151752077495867
-0.151623947923197	-0.151623947923197	-0.151623947923197	-0.151623947923197	-0.151623947923197	-0.151623947923197
-0.151497647343366	-0.151497647343366	-0.151497647343366	-0.151497647343366	-0.151497647343366	-0.151497647343366
-0.151373159641584	-0.151373159641584	-0.151373159641584	-0.151373159641584	-0.151373159641584	-0.151373159641584
-0.151250468690188	-0.151250468690188	-0.151250468690188	-0.151250468690188	-0.151250468690188	-0.151250468690188
-0.151129558348645	-0.151129558348645	-0.151129558348645	-0.151129558348645	-0.151129558348645	-0.151129558348645
-0.151008996750214	-0.151008996750214	-0.151008996750214	-0.151008996750214	-0.151008996750214	-0.151008996750214
-0.15088789814681	-0.15088789814681	-0.15088789814681	-0.15088789814681	-0.15088789814681	-0.15088789814681
-0.150767422670461	-0.150767422670461	-0.150767422670461	-0.150767422670461	-0.150767422670461	-0.150767422670461
-0.15064853930956	-0.15064853930956	-0.15064853930956	-0.15064853930956	-0.15064853930956	-0.15064853930956
-0.150532021651873	-0.150532021651873	-0.150532021651873	-0.150532021651873	-0.150532021651873	-0.150532021651873
-0.15041844788454	-0.15041844788454	-0.15041844788454	-0.15041844788454	-0.15041844788454	-0.15041844788454
-0.150308200794072	-0.150308200794072	-0.150308200794072	-0.150308200794072	-0.150308200794072	-0.150308200794072
-0.150201467766357	-0.150201467766357	-0.150201467766357	-0.150201467766357	-0.150201467766357	-0.150201467766357
-0.150098240786656	-0.150098240786656	-0.150098240786656	-0.150098240786656	-0.150098240786656	-0.150098240786656
-0.1499983164396	-0.1499983164396	-0.1499983164396	-0.1499983164396	-0.1499983164396	-0.1499983164396
-0.149901295909198	-0.149901295909198	-0.149901295909198	-0.149901295909198	-0.149901295909198	-0.149901295909198
-0.149806584978831	-0.149806584978831	-0.149806584978831	-0.149806584978831	-0.149806584978831	-0.149806584978831
-0.149713394031252	-0.149713394031252	-0.149713394031252	-0.149713394031252	-0.149713394031252	-0.149713394031252
-0.14962073804859	-0.14962073804859	-0.14962073804859	-0.14962073804859	-0.14962073804859	-0.14962073804859
-0.149527436612345	-0.149527436612345	-0.149527436612345	-0.149527436612345	-0.149527436612345	-0.149527436612345
-0.149432113903393	-0.149432113903393	-0.149432113903393	-0.149432113903393	-0.149432113903393	-0.149432113903393
-0.149333198701981	-0.149333198701981	-0.149333198701981	-0.149333198701981	-0.149333198701981	-0.149333198701981
-0.149228924387733	-0.149228924387733	-0.149228924387733	-0.149228924387733	-0.149228924387733	-0.149228924387733
-0.149117328939644	-0.149117328939644	-0.149117328939644	-0.149117328939644	-0.149117328939644	-0.149117328939644
-0.148996254936082	-0.148996254936082	-0.148996254936082	-0.148996254936082	-0.148996254936082	-0.148996254936082
-0.14886334955479	-0.14886334955479	-0.14886334955479	-0.14886334955479	-0.14886334955479	-0.14886334955479
-0.148716064572884	-0.148716064572884	-0.148716064572884	-0.148716064572884	-0.148716064572884	-0.148716064572884
-0.148562342711244	-0.148562342711244	-0.148562342711244	-0.148562342711244	-0.148562342711244	-0.148562342711244
-0.148436629686738	-0.148436629686738	-0.148436629686738	-0.148436629686738	-0.148436629686738	-0.148436629686738
-0.148308710888858	-0.148308710888858	-0.148308710888858	-0.148308710888858	-0.148308710888858	-0.148308710888858
-0.148140001203083	-0.148140001203083	-0.148140001203083	-0.148140001203083	-0.148140001203083	-0.148140001203083
-0.147891444088575	-0.147891444088575	-0.147891444088575	-0.147891444088575	-0.147891444088575	-0.147891444088575
-0.147523511578183	-0.147523511578183	-0.147523511578183	-0.147523511578183	-0.147523511578183	-0.147523511578183
-0.146996204278442	-0.146996204278442	-0.146996204278442	-0.146996204278442	-0.146996204278442	-0.146996204278442
-0.146269051369573	-0.146269051369573	-0.146269051369573	-0.146269051369573	-0.146269051369573	-0.146269051369573
-0.145301110605483	-0.145301110605483	-0.145301110605483	-0.145301110605483	-0.145301110605483	-0.145301110605483
-0.144050968313763	-0.144050968313763	-0.144050968313763	-0.144050968313763	-0.144050968313763	-0.144050968313763
-0.142476739395694	-0.142476739395694	-0.142476739395694	-0.142476739395694	-0.142476739395694	-0.142476739395694
-0.140536067326239	-0.140536067326239	-0.140536067326239	-0.140536067326239	-0.140536067326239	-0.140536067326239
-0.138186124154049	-0.138186124154049	-0.138186124154049	-0.138186124154049	-0.138186124154049	-0.138186124154049
-0.135383610501459	-0.135383610501459	-0.135383610501459	-0.135383610501459	-0.135383610501459	-0.135383610501459
-0.132084755564493	-0.132084755564493	-0.132084755564493	-0.132084755564493	-0.132084755564493	-0.132084755564493
-0.128245317112858	-0.128245317112858	-0.128245317112858	-0.128245317112858	-0.128245317112858	-0.128245317112858
-0.123820581489949	-0.123820581489949	-0.123820581489949	-0.123820581489949	-0.123820581489949	-0.123820581489949
-0.118765363612844	-0.118765363612844	-0.118765363612844	-0.118765363612844	-0.118765363612844	-0.118765363612844
-0.11303400697231	-0.11303400697231	-0.11303400697231	-0.11303400697231	-0.11303400697231	-0.11303400697231
-0.106580383632799	-0.106580383632799	-0.106580383632799	-0.106580383632799	-0.106580383632799	-0.106580383632799
-0.0993578942324487	-0.0993578942324487	-0.0993578942324487	-0.0993578942324487	-0.0993578942324487	-0.0993578942324487
-0.0913194679830819	-0.0913194679830819	-0.0913194679830819	-0.0913194679830819	-0.0913194679830819	-0.0913194679830819
-0.082419547416032	-0.082419547416032	-0.082419547416032	-0.082419547416032	-0.082419547416032	-0.082419547416032
-0.072744556396144	-0.072744556396144	-0.072744556396144	-0.072744556396144	-0.072744556396144	-0.072744556396144
-0.0624578175667423	-0.0624578175667423	-0.0624578175667423	-0.0624578175667423	-0.0624578175667423	-0.0624578175667423
-0.051706475654359	-0.051706475654359	-0.051706475654359	-0.051706475654359	-0.051706475654359	-0.051706475654359
-0.0406551592438918	-0.0406551592438918	-0.0406551592438918	-0.0406551592438918	-0.0406551592438918	-0.0406551592438918
-0.0294859807786041	-0.0294859807786041	-0.0294859807786041	-0.0294859807786041	-0.0294859807786041	-0.0294859807786041
-0.0183985365601249	-0.0183985365601249	-0.0183985365601249	-0.0183985365601249	-0.0183985365601249	-0.0183985365601249
-0.00760990674844852	-0.00760990674844852	-0.00760990674844852	-0.00760990674844852	-0.00760990674844852	-0.00760990674844852
0.0026453446380646	0.0026453446380646	0.0026453446380646	0.0026453446380646	0.0026453446380646	0.0026453446380646
0.0121151697226889	0.0121151697226889	0.0121151697226889	0.0121151697226889	0.0121151697226889	0.0121151697226889
0.0205300367703331	0.0205300367703331	0.0205300367703331	0.0205300367703331	0.0205300367703331	0.0205300367703331
0.0276467274324385	0.0276467274324385	0.0276467274324385	0.0276467274324385	0.0276467274324385	0.0276467274324385
0.0332868023771813	0.0332868023771813	0.0332868023771813	0.0332868023771813	0.0332868023771813	0.0332868023771813
0.0372767791072168	0.0372767791072168	0.0372767791072168	0.0372767791072168	0.0372767791072168	0.0372767791072168
0.0394932225863412	0.0394932225863412	0.0394932225863412	0.0394932225863412	0.0394932225863412	0.0394932225863412
0.0398632807331928	0.0398632807331928	0.0398632807331928	0.0398632807331928	0.0398632807331928	0.0398632807331928
0.0383646844212513	0.0383646844212513	0.0383646844212513	0.0383646844212513	0.0383646844212513	0.0383646844212513
0.035025747478839	0.035025747478839	0.035025747478839	0.035025747478839	0.035025747478839	0.035025747478839
0.0299253666891193	0.0299253666891193	0.0299253666891193	0.0299253666891193	0.0299253666891193	0.0299253666891193
0.023193021790098	0.023193021790098	0.023193021790098	0.023193021790098	0.023193021790098	0.023193021790098
0.0150087754746226	0.0150087754746226	0.0150087754746226	0.0150087754746226	0.0150087754746226	0.0150087754746226
0.00558051602835924	0.00558051602835924	0.00558051602835924	0.00558051602835924	0.00558051602835924	0.00558051602835924
-0.00489257982188362	-0.00489257982188362	-0.00489257982188362	-0.00489257982188362	-0.00489257982188362	-0.00489257982188362
-0.016117706280344	-0.016117706280344	-0.016117706280344	-0.016117706280344	-0.016117706280344	-0.016117706280344
-0.0278174613444594	-0.0278174613444594	-0.0278174613444594	-0.0278174613444594	-0.0278174613444594	-0.0278174613444594
-0.0397398420394586	-0.0397398420394586	-0.0397398420394586	-0.0397398420394586	-0.0397398420394586	-0.0397398420394586
-0.0516582444183612	-0.0516582444183612	-0.0516582444183612	-0.0516582444183612	-0.0516582444183612	-0.0516582444183612
-0.0633714635619779	-0.0633714635619779	-0.0633714635619779	-0.0633714635619779	-0.0633714635619779	-0.0633714635619779
-0.0747036935789104	-0.0747036935789104	-0.0747036935789104	-0.0747036935789104	-0.0747036935789104	-0.0747036935789104
-0.0855045276055516	-0.0855045276055516	-0.0855045276055516	-0.0855045276055516	-0.0855045276055516	-0.0855045276055516
-0.0956489578060852	-0.0956489578060852	-0.0956489578060852	-0.0956489578060852	-0.0956489578060852	-0.0956489578060852
-0.105037375372486	-0.105037375372486	-0.105037375372486	-0.105037375372486	-0.105037375372486	-0.105037375372486
-0.11359557052452	-0.11359557052452	-0.11359557052452	-0.11359557052452	-0.11359557052452	-0.11359557052452
-0.121375002671714	-0.121375002671714	-0.121375002671714	-0.121375002671714	-0.121375002671714	-0.121375002671714
-0.128449404981031	-0.128449404981031	-0.128449404981031	-0.128449404981031	-0.128449404981031	-0.128449404981031
-0.134684573915866	-0.134684573915866	-0.134684573915866	-0.134684573915866	-0.134684573915866	-0.134684573915866
-0.140009373518962	-0.140009373518962	-0.140009373518962	-0.140009373518962	-0.140009373518962	-0.140009373518962
-0.144421420360892	-0.144421420360892	-0.144421420360892	-0.144421420360892	-0.144421420360892	-0.144421420360892
-0.147987083540058	-0.147987083540058	-0.147987083540058	-0.147987083540058	-0.147987083540058	-0.147987083540058
-0.150841484682693	-0.150841484682693	-0.150841484682693	-0.150841484682693	-0.150841484682693	-0.150841484682693
-0.153188497942858	-0.153188497942858	-0.153188497942858	-0.153188497942858	-0.153188497942858	-0.153188497942858
-0.155300750002448	-0.155300750002448	-0.155300750002448	-0.155300750002448	-0.155300750002448	-0.155300750002448
-0.157519620071183	-0.157519620071183	-0.157519620071183	-0.157519620071183	-0.157519620071183	-0.157519620071183
-0.160255239886618	-0.160255239886618	-0.160255239886618	-0.160255239886618	-0.160255239886618	-0.160255239886618
-0.163986493714134	-0.163986493714134	-0.163986493714134	-0.163986493714134	-0.163986493714134	-0.163986493714134
-0.169261018346943	-0.169261018346943	-0.169261018346943	-0.169261018346943	-0.169261018346943	-0.169261018346943
-0.17669512489192	-0.17669512489192	-0.17669512489192	-0.17669512489192	-0.17669512489192	-0.17669512489192
-0.186898709148536	-0.186898709148536	-0.186898709148536	-0.186898709148536	-0.186898709148536	-0.186898709148536
-0.200327846914266	-0.200327846914266	-0.200327846914266	-0.200327846914266	-0.200327846914266	-0.200327846914266
-0.216694468054308	-0.216694468054308	-0.216694468054308	-0.216694468054308	-0.216694468054308	-0.216694468054308
-0.234765121099579	-0.234765121099579	-0.234765121099579	-0.234765121099579	-0.234765121099579	-0.234765121099579
-0.252360973246712	-0.252360973246712	-0.252360973246712	-0.252360973246712	-0.252360973246712	-0.252360973246712
-0.266357810358058	-0.266357810358058	-0.266357810358058	-0.266357810358058	-0.266357810358058	-0.266357810358058
-0.273016399119488	-0.273016399119488	-0.273016399119488	-0.273016399119488	-0.273016399119488	-0.273016399119488
-0.268110166204482	-0.268110166204482	-0.268110166204482	-0.268110166204482	-0.268110166204482	-0.268110166204482
-0.247128862871416	-0.247128862871416	-0.247128862871416	-0.247128862871416	-0.247128862871416	-0.247128862871416
-0.206796176699321	-0.206796176699321	-0.206796176699321	-0.206796176699321	-0.206796176699321	-0.206796176699321
-0.145114019599238	-0.145114019599238	-0.145114019599238	-0.145114019599238	-0.145114019599238	-0.145114019599238
-0.0613625278142153	-0.0613625278142153	-0.0613625278142153	-0.0613625278142153	-0.0613625278142153	-0.0613625278142153
0.0440812810313828	0.0440812810313828	0.0440812810313828	0.0440812810313828	0.0440812810313828	0.0440812810313828
0.1667144829532	0.1667144829532	0.1667144829532	0.1667144829532	0.1667144829532	0.1667144829532
0.294422595489258	0.294422595489258	0.294422595489258	0.294422595489258	0.294422595489258	0.294422595489258
0.414403156928236	0.414403156928236	0.414403156928236	0.414403156928236	0.414403156928236	0.414403156928236
0.513840281640586	0.513840281640586	0.513840281640586	0.513840281640586	0.513840281640586	0.513840281640586
0.579904660078536	0.579904660078536	0.579904660078536	0.579904660078536	0.579904660078536	0.579904660078536
0.599827484950737	0.599827484950737	0.599827484950737	0.599827484950737	0.599827484950737	0.599827484950737
0.567968526565798	0.567968526565798	0.567968526565798	0.567968526565798	0.567968526565798	0.567968526565798
0.491879058439154	0.491879058439154	0.491879058439154	0.491879058439154	0.491879058439154	0.491879058439154
0.3819658710974	0.3819658710974	0.3819658710974	0.3819658710974	0.3819658710974	0.3819658710974
0.250376035188449	0.250376035188449	0.250376035188449	0.250376035188449	0.250376035188449	0.250376035188449
0.110996901481542	0.110996901481542	0.110996901481542	0.110996901481542	0.110996901481542	0.110996901481542
-0.0210833382875794	-0.0210833382875794	-0.0210833382875794	-0.0210833382875794	-0.0210833382875794	-0.0210833382875794
-0.136378927286844	-0.136378927286844	-0.136378927286844	-0.136378927286844	-0.136378927286844	-0.136378927286844
-0.230175471562133	-0.230175471562133	-0.230175471562133	-0.230175471562133	-0.230175471562133	-0.230175471562133
-0.299761743491855	-0.299761743491855	-0.299761743491855	-0.299761743491855	-0.299761743491855	-0.299761743491855
-0.344537926440773	-0.344537926440773	-0.344537926440773	-0.344537926440773	-0.344537926440773	-0.344537926440773
-0.366015614760011	-0.366015614760011	-0.366015614760011	-0.366015614760011	-0.366015614760011	-0.366015614760011
-0.367817498708754	-0.367817498708754	-0.367817498708754	-0.367817498708754	-0.367817498708754	-0.367817498708754
-0.354497320305778	-0.354497320305778	-0.354497320305778	-0.354497320305778	-0.354497320305778	-0.354497320305778
-0.331294726802808	-0.331294726802808	-0.331294726802808	-0.331294726802808	-0.331294726802808	-0.331294726802808
-0.303482930309076	-0.303482930309076	-0.303482930309076	-0.303482930309076	-0.303482930309076	-0.303482930309076
-0.275195285058171	-0.275195285058171	-0.275195285058171	-0.275195285058171	-0.275195285058171	-0.275195285058171
-0.249425287408044	-0.249425287408044	-0.249425287408044	-0.249425287408044	-0.249425287408044	-0.249425287408044
-0.228026575841003	-0.228026575841003	-0.228026575841003	-0.228026575841003	-0.228026575841003	-0.228026575841003
-0.21175769167258	-0.21175769167258	-0.21175769167258	-0.21175769167258	-0.21175769167258	-0.21175769167258
-0.200305891482439	-0.200305891482439	-0.200305891482439	-0.200305891482439	-0.200305891482439	-0.200305891482439
-0.192543986312193	-0.192543986312193	-0.192543986312193	-0.192543986312193	-0.192543986312193	-0.192543986312193
-0.187441107724828	-0.187441107724828	-0.187441107724828	-0.187441107724828	-0.187441107724828	-0.187441107724828
-0.184130504988671	-0.184130504988671	-0.184130504988671	-0.184130504988671	-0.184130504988671	-0.184130504988671
-0.181909545077386	-0.181909545077386	-0.181909545077386	-0.181909545077386	-0.181909545077386	-0.181909545077386
-0.180239712669978	-0.180239712669978	-0.180239712669978	-0.180239712669978	-0.180239712669978	-0.180239712669978
-0.178746610150789	-0.178746610150789	-0.178746610150789	-0.178746610150789	-0.178746610150789	-0.178746610150789
-0.177219957609502	-0.177219957609502	-0.177219957609502	-0.177219957609502	-0.177219957609502	-0.177219957609502
-0.175613554997791	-0.175613554997791	-0.175613554997791	-0.175613554997791	-0.175613554997791	-0.175613554997791
-0.173897448245903	-0.173897448245903	-0.173897448245903	-0.173897448245903	-0.173897448245903	-0.173897448245903
-0.171978103161383	-0.171978103161383	-0.171978103161383	-0.171978103161383	-0.171978103161383	-0.171978103161383
-0.16982644444276	-0.16982644444276	-0.16982644444276	-0.16982644444276	-0.16982644444276	-0.16982644444276
-0.167414412543754	-0.167414412543754	-0.167414412543754	-0.167414412543754	-0.167414412543754	-0.167414412543754
-0.164714963673275	-0.164714963673275	-0.164714963673275	-0.164714963673275	-0.164714963673275	-0.164714963673275
-0.161702069795421	-0.161702069795421	-0.161702069795421	-0.161702069795421	-0.161702069795421	-0.161702069795421
-0.158350718629483	-0.158350718629483	-0.158350718629483	-0.158350718629483	-0.158350718629483	-0.158350718629483
-0.154636913649938	-0.154636913649938	-0.154636913649938	-0.154636913649938	-0.154636913649938	-0.154636913649938
-0.150537674086453	-0.150537674086453	-0.150537674086453	-0.150537674086453	-0.150537674086453	-0.150537674086453
-0.146031034923887	-0.146031034923887	-0.146031034923887	-0.146031034923887	-0.146031034923887	-0.146031034923887
-0.141096046902287	-0.141096046902287	-0.141096046902287	-0.141096046902287	-0.141096046902287	-0.141096046902287
-0.135712776516889	-0.135712776516889	-0.135712776516889	-0.135712776516889	-0.135712776516889	-0.135712776516889
-0.129865697108191	-0.129865697108191	-0.129865697108191	-0.129865697108191	-0.129865697108191	-0.129865697108191
-0.123549880038672	-0.123549880038672	-0.123549880038672	-0.123549880038672	-0.123549880038672	-0.123549880038672
-0.116751997403106	-0.116751997403106	-0.116751997403106	-0.116751997403106	-0.116751997403106	-0.116751997403106
-0.109464546906489	-0.109464546906489	-0.109464546906489	-0.109464546906489	-0.109464546906489	-0.109464546906489
-0.101687401150345	-0.101687401150345	-0.101687401150345	-0.101687401150345	-0.101687401150345	-0.101687401150345
-0.0934278076327302	-0.0934278076327302	-0.0934278076327302	-0.0934278076327302	-0.0934278076327302	-0.0934278076327302
-0.0847003887482307	-0.0847003887482307	-0.0847003887482307	-0.0847003887482307	-0.0847003887482307	-0.0847003887482307
-0.0755271417879634	-0.0755271417879634	-0.0755271417879634	-0.0755271417879634	-0.0755271417879634	-0.0755271417879634
-0.0659374389395763	-0.0659374389395763	-0.0659374389395763	-0.0659374389395763	-0.0659374389395763	-0.0659374389395763
-0.0559680272872475	-0.0559680272872475	-0.0559680272872475	-0.0559680272872475	-0.0559680272872475	-0.0559680272872475
-0.0456630288116864	-0.0456630288116864	-0.0456630288116864	-0.0456630288116864	-0.0456630288116864	-0.0456630288116864
-0.0350739403901327	-0.0350739403901327	-0.0350739403901327	-0.0350739403901327	-0.0350739403901327	-0.0350739403901327
-0.0242596337963567	-0.0242596337963567	-0.0242596337963567	-0.0242596337963567	-0.0242596337963567	-0.0242596337963567
-0.0132863557006599	-0.0132863557006599	-0.0132863557006599	-0.0132863557006599	-0.0132863557006599	-0.0132863557006599
-0.00222772766987345	-0.00222772766987345	-0.00222772766987345	-0.00222772766987345	-0.00222772766987345	-0.00222772766987345
0.00883525383263944	0.00883525383263944	0.00883525383263944	0.00883525383263944	0.00883525383263944	0.00883525383263944
0.0198283193891823	0.0198283193891823	0.0198283193891823	0.0198283193891823	0.0198283193891823	0.0198283193891823
0.0306844949014654	0.0306844949014654	0.0306844949014654	0.0306844949014654	0.0306844949014654	0.0306844949014654
0.041289783647543	0.041289783647543	0.041289783647543	0.041289783647543	0.041289783647543	0.041289783647543
0.0515341666879148	0.0515341666879148	0.0515341666879148	0.0515341666879148	0.0515341666879148	0.0515341666879148
0.0613143827441021	0.0613143827441021	0.0613143827441021	0.0613143827441021	0.0613143827441021	0.0613143827441021
0.0705339281986473	0.0705339281986473	0.0705339281986473	0.0705339281986473	0.0705339281986473	0.0705339281986473
0.0791030570951141	0.0791030570951141	0.0791030570951141	0.0791030570951141	0.0791030570951141	0.0791030570951141
0.0869387811380877	0.0869387811380877	0.0869387811380877	0.0869387811380877	0.0869387811380877	0.0869387811380877
0.0939648696931746	0.0939648696931746	0.0939648696931746	0.0939648696931746	0.0939648696931746	0.0939648696931746
0.100111849787003	0.100111849787003	0.100111849787003	0.100111849787003	0.100111849787003	0.100111849787003
0.105317006107221	0.105317006107221	0.105317006107221	0.105317006107221	0.105317006107221	0.105317006107221
0.109524381002501	0.109524381002501	0.109524381002501	0.109524381002501	0.109524381002501	0.109524381002501
0.112684774482533	0.112684774482533	0.112684774482533	0.112684774482533	0.112684774482533	0.112684774482533
0.114755744218032	0.114755744218032	0.114755744218032	0.114755744218032	0.114755744218032	0.114755744218032
0.115701605540731	0.115701605540731	0.115701605540731	0.115701605540731	0.115701605540731	0.115701605540731
0.115493431443387	0.115493431443387	0.115493431443387	0.115493431443387	0.115493431443387	0.115493431443387
0.114104623812815	0.114104623812815	0.114104623812815	0.114104623812815	0.114104623812815	0.114104623812815
0.111542131338121	0.111542131338121	0.111542131338121	0.111542131338121	0.111542131338121	0.111542131338121
0.107852055388556	0.107852055388556	0.107852055388556	0.107852055388556	0.107852055388556	0.107852055388556
0.103085512916999	0.103085512916999	0.103085512916999	0.103085512916999	0.103085512916999	0.103085512916999
0.0972980589620389	0.0972980589620389	0.0972980589620389	0.0972980589620389	0.0972980589620389	0.0972980589620389
0.0905496866479724	0.0905496866479724	0.0905496866479724	0.0905496866479724	0.0905496866479724	0.0905496866479724
0.0829048271848063	0.0829048271848063	0.0829048271848063	0.0829048271848063	0.0829048271848063	0.0829048271848063
0.0744323498682569	0.0744323498682569	0.0744323498682569	0.0744323498682569	0.0744323498682569	0.0744323498682569
0.0652055620797493	0.0652055620797493	0.0652055620797493	0.0652055620797493	0.0652055620797493	0.0652055620797493
0.0553022092864181	0.0553022092864181	0.0553022092864181	0.0553022092864181	0.0553022092864181	0.0553022092864181
0.0448044750411072	0.0448044750411072	0.0448044750411072	0.0448044750411072	0.0448044750411072	0.0448044750411072
0.0337989809823694	0.0337989809823694	0.0337989809823694	0.0337989809823694	0.0337989809823694	0.0337989809823694
0.0223767868344674	0.0223767868344674	0.0223767868344674	0.0223767868344674	0.0223767868344674	0.0223767868344674
0.0106333904073725	0.0106333904073725	0.0106333904073725	0.0106333904073725	0.0106333904073725	0.0106333904073725
-0.00133127240323416	-0.00133127240323416	-0.00133127240323416	-0.00133127240323416	-0.00133127240323416	-0.00133127240323416
-0.0134128276159627	-0.0134128276159627	-0.0134128276159627	-0.0134128276159627	-0.0134128276159627	-0.0134128276159627
-0.0255024631637135	-0.0255024631637135	-0.0255024631637135	-0.0255024631637135	-0.0255024631637135	-0.0255024631637135
-0.037488098051693	-0.037488098051693	-0.037488098051693	-0.037488098051693	-0.037488098051693	-0.037488098051693
-0.0493010987420044	-0.0493010987420044	-0.0493010987420044	-0.0493010987420044	-0.0493010987420044	-0.0493010987420044
-0.0608855261587542	-0.0608855261587542	-0.0608855261587542	-0.0608855261587542	-0.0608855261587542	-0.0608855261587542
-0.0721789140501344	-0.0721789140501344	-0.0721789140501344	-0.0721789140501344	-0.0721789140501344	-0.0721789140501344
-0.0831254545589677	-0.0831254545589677	-0.0831254545589677	-0.0831254545589677	-0.0831254545589677	-0.0831254545589677
-0.0936759982227077	-0.0936759982227077	-0.0936759982227077	-0.0936759982227077	-0.0936759982227077	-0.0936759982227077
-0.103788053973438	-0.103788053973438	-0.103788053973438	-0.103788053973438	-0.103788053973438	-0.103788053973438
-0.113425789137875	-0.113425789137875	-0.113425789137875	-0.113425789137875	-0.113425789137875	-0.113425789137875
-0.122560029437363	-0.122560029437363	-0.122560029437363	-0.122560029437363	-0.122560029437363	-0.122560029437363
-0.131168258987878	-0.131168258987878	-0.131168258987878	-0.131168258987878	-0.131168258987878	-0.131168258987878
-0.139234620300029	-0.139234620300029	-0.139234620300029	-0.139234620300029	-0.139234620300029	-0.139234620300029
-0.146749914279052	-0.146749914279052	-0.146749914279052	-0.146749914279052	-0.146749914279052	-0.146749914279052
-0.153711600224817	-0.153711600224817	-0.153711600224817	-0.153711600224817	-0.153711600224817	-0.153711600224817
-0.160123795831822	-0.160123795831822	-0.160123795831822	-0.160123795831822	-0.160123795831822	-0.160123795831822
-0.165997277189198	-0.165997277189198	-0.165997277189198	-0.165997277189198	-0.165997277189198	-0.165997277189198
-0.171349478780706	-0.171349478780706	-0.171349478780706	-0.171349478780706	-0.171349478780706	-0.171349478780706
-0.176204493484737	-0.176204493484737	-0.176204493484737	-0.176204493484737	-0.176204493484737	-0.176204493484737
-0.180593072574314	-0.180593072574314	-0.180593072574314	-0.180593072574314	-0.180593072574314	-0.180593072574314
-0.184545362367146	-0.184545362367146	-0.184545362367146	-0.184545362367146	-0.184545362367146	-0.184545362367146
-0.188068930375657	-0.188068930375657	-0.188068930375657	-0.188068930375657	-0.188068930375657	-0.188068930375657
-0.191192504487118	-0.191192504487118	-0.191192504487118	-0.191192504487118	-0.191192504487118	-0.191192504487118
-0.193946582068148	-0.193946582068148	-0.193946582068148	-0.193946582068148	-0.193946582068148	-0.193946582068148
-0.196360379428498	-0.196360379428498	-0.196360379428498	-0.196360379428498	-0.196360379428498	-0.196360379428498
-0.19846183182105	-0.19846183182105	-0.19846183182105	-0.19846183182105	-0.19846183182105	-0.19846183182105
-0.200277593441818	-0.200277593441818	-0.200277593441818	-0.200277593441818	-0.200277593441818	-0.200277593441818
-0.201833037429946	-0.201833037429946	-0.201833037429946	-0.201833037429946	-0.201833037429946	-0.201833037429946
-0.203152255867713	-0.203152255867713	-0.203152255867713	-0.203152255867713	-0.203152255867713	-0.203152255867713
-0.204258059780527	-0.204258059780527	-0.204258059780527	-0.204258059780527	-0.204258059780527	-0.204258059780527
-0.205171979136929	-0.205171979136929	-0.205171979136929	-0.205171979136929	-0.205171979136929	-0.205171979136929
-0.205914262848591	-0.205914262848591	-0.205914262848591	-0.205914262848591	-0.205914262848591	-0.205914262848591
-0.206503878770318	-0.206503878770318	-0.206503878770318	-0.206503878770318	-0.206503878770318	-0.206503878770318
-0.206958513700046	-0.206958513700046	-0.206958513700046	-0.206958513700046	-0.206958513700046	-0.206958513700046
-0.207294573378841	-0.207294573378841	-0.207294573378841	-0.207294573378841	-0.207294573378841	-0.207294573378841
-0.207527182490905	-0.207527182490905	-0.207527182490905	-0.207527182490905	-0.207527182490905	-0.207527182490905
-0.207670184663566	-0.207670184663566	-0.207670184663566	-0.207670184663566	-0.207670184663566	-0.207670184663566
-0.20773614246729	-0.20773614246729	-0.20773614246729	-0.20773614246729	-0.20773614246729	-0.20773614246729
-0.207736337415669	-0.207736337415669	-0.207736337415669	-0.207736337415669	-0.207736337415669	-0.207736337415669
-0.207677582402434	-0.207677582402434	-0.207677582402434	-0.207677582402434	-0.207677582402434	-0.207677582402434
-0.207556477644748	-0.207556477644748	-0.207556477644748	-0.207556477644748	-0.207556477644748	-0.207556477644748
-0.207380316886088	-0.207380316886088	-0.207380316886088	-0.207380316886088	-0.207380316886088	-0.207380316886088
-0.207157100633903	-0.207157100633903	-0.207157100633903	-0.207157100633903	-0.207157100633903	-0.207157100633903
-0.206894276296749	-0.206894276296749	-0.206894276296749	-0.206894276296749	-0.206894276296749	-0.206894276296749
-0.206598738184288	-0.206598738184288	-0.206598738184288	-0.206598738184288	-0.206598738184288	-0.206598738184288
-0.206276827507288	-0.206276827507288	-0.206276827507288	-0.206276827507288	-0.206276827507288	-0.206276827507288
-0.205934332377624	-0.205934332377624	-0.205934332377624	-0.205934332377624	-0.205934332377624	-0.205934332377624
-0.205576487808275	-0.205576487808275	-0.205576487808275	-0.205576487808275	-0.205576487808275	-0.205576487808275
-0.20520797571333	-0.20520797571333	-0.20520797571333	-0.20520797571333	-0.20520797571333	-0.20520797571333
-0.204832924907979	-0.204832924907979	-0.204832924907979	-0.204832924907979	-0.204832924907979	-0.204832924907979
-0.204454911108523	-0.204454911108523	-0.204454911108523	-0.204454911108523	-0.204454911108523	-0.204454911108523
-0.204076956932367	-0.204076956932367	-0.204076956932367	-0.204076956932367	-0.204076956932367	-0.204076956932367
-0.203701531898021	-0.203701531898021	-0.203701531898021	-0.203701531898021	-0.203701531898021	-0.203701531898021
-0.203330552425103	-0.203330552425103	-0.203330552425103	-0.203330552425103	-0.203330552425103	-0.203330552425103
-0.202965381834336	-0.202965381834336	-0.202965381834336	-0.202965381834336	-0.202965381834336	-0.202965381834336
-0.202606830347551	-0.202606830347551	-0.202606830347551	-0.202606830347551	-0.202606830347551	-0.202606830347551
-0.202255155087683	-0.202255155087683	-0.202255155087683	-0.202255155087683	-0.202255155087683	-0.202255155087683
-0.201910060078775	-0.201910060078775	-0.201910060078775	-0.201910060078775	-0.201910060078775	-0.201910060078775
-0.201570696245973	-0.201570696245973	-0.201570696245973	-0.201570696245973	-0.201570696245973	-0.201570696245973
-0.201235661415533	-0.201235661415533	-0.201235661415533	-0.201235661415533	-0.201235661415533	-0.201235661415533
-0.200903000314815	-0.200903000314815	-0.200903000314815	-0.200903000314815	-0.200903000314815	-0.200903000314815
-0.200570204572285	-0.200570204572285	-0.200570204572285	-0.200570204572285	-0.200570204572285	-0.200570204572285
-0.200234212717516	-0.200234212717516	-0.200234212717516	-0.200234212717516	-0.200234212717516	-0.200234212717516
-0.19989148739256	-0.19989148739256	-0.19989148739256	-0.19989148739256	-0.19989148739256	-0.19989148739256
-0.199542354632722	-0.199542354632722	-0.199542354632722	-0.199542354632722	-0.199542354632722	-0.199542354632722
-0.199189758980374	-0.199189758980374	-0.199189758980374	-0.199189758980374	-0.199189758980374	-0.199189758980374
-0.198835593715456	-0.198835593715456	-0.198835593715456	-0.198835593715456	-0.198835593715456	-0.198835593715456
-0.198481413626619	-0.198481413626619	-0.198481413626619	-0.198481413626619	-0.198481413626619	-0.198481413626619
-0.198128435011234	-0.198128435011234	-0.198128435011234	-0.198128435011234	-0.198128435011234	-0.198128435011234
-0.197777535675385	-0.197777535675385	-0.197777535675385	-0.197777535675385	-0.197777535675385	-0.197777535675385
-0.197429254933871	-0.197429254933871	-0.197429254933871	-0.197429254933871	-0.197429254933871	-0.197429254933871
-0.197083793610207	-0.197083793610207	-0.197083793610207	-0.197083793610207	-0.197083793610207	-0.197083793610207
-0.196741014036626	-0.196741014036626	-0.196741014036626	-0.196741014036626	-0.196741014036626	-0.196741014036626
-0.196400440054072	-0.196400440054072	-0.196400440054072	-0.196400440054072	-0.196400440054072	-0.196400440054072
-0.196061257012209	-0.196061257012209	-0.196061257012209	-0.196061257012209	-0.196061257012209	-0.196061257012209
-0.195722311769413	-0.195722311769413	-0.195722311769413	-0.195722311769413	-0.195722311769413	-0.195722311769413
-0.195382112692777	-0.195382112692777	-0.195382112692777	-0.195382112692777	-0.195382112692777	-0.195382112692777
-0.19503882965811	-0.19503882965811	-0.19503882965811	-0.19503882965811	-0.19503882965811	-0.19503882965811
-0.194690294049936	-0.194690294049936	-0.194690294049936	-0.194690294049936	-0.194690294049936	-0.194690294049936
-0.194333998761494	-0.194333998761494	-0.194333998761494	-0.194333998761494	-0.194333998761494	-0.194333998761494
-0.193967098194739	-0.193967098194739	-0.193967098194739	-0.193967098194739	-0.193967098194739	-0.193967098194739
-0.193586408260342	-0.193586408260342	-0.193586408260342	-0.193586408260342	-0.193586408260342	-0.193586408260342
-0.193188406377688	-0.193188406377688	-0.193188406377688	-0.193188406377688	-0.193188406377688	-0.193188406377688
-0.192769231474879	-0.192769231474879	-0.192769231474879	-0.192769231474879	-0.192769231474879	-0.192769231474879
-0.192324683988731	-0.192324683988731	-0.192324683988731	-0.192324683988731	-0.192324683988731	-0.192324683988731
-0.191850225864778	-0.191850225864778	-0.191850225864778	-0.191850225864778	-0.191850225864778	-0.191850225864778
-0.191385420751133	-0.191385420751133	-0.191385420751133	-0.191385420751133	-0.191385420751133	-0.191385420751133
-0.190956235972934	-0.190956235972934	-0.190956235972934	-0.190956235972934	-0.190956235972934	-0.190956235972934
-0.190498745451165	-0.190498745451165	-0.190498745451165	-0.190498745451165	-0.190498745451165	-0.190498745451165
-0.18995083507733	-0.18995083507733	-0.18995083507733	-0.18995083507733	-0.18995083507733	-0.18995083507733
-0.189253042413845	-0.189253042413845	-0.189253042413845	-0.189253042413845	-0.189253042413845	-0.189253042413845
-0.188348556694035	-0.188348556694035	-0.188348556694035	-0.188348556694035	-0.188348556694035	-0.188348556694035
-0.187183218822137	-0.187183218822137	-0.187183218822137	-0.187183218822137	-0.187183218822137	-0.187183218822137
-0.185705521373295	-0.185705521373295	-0.185705521373295	-0.185705521373295	-0.185705521373295	-0.185705521373295
-0.183866608593566	-0.183866608593566	-0.183866608593566	-0.183866608593566	-0.183866608593566	-0.183866608593566
-0.181620276399914	-0.181620276399914	-0.181620276399914	-0.181620276399914	-0.181620276399914	-0.181620276399914
-0.178922972380217	-0.178922972380217	-0.178922972380217	-0.178922972380217	-0.178922972380217	-0.178922972380217
-0.175733795793259	-0.175733795793259	-0.175733795793259	-0.175733795793259	-0.175733795793259	-0.175733795793259
-0.172014497568736	-0.172014497568736	-0.172014497568736	-0.172014497568736	-0.172014497568736	-0.172014497568736
-0.167729480307255	-0.167729480307255	-0.167729480307255	-0.167729480307255	-0.167729480307255	-0.167729480307255
-0.162845798280331	-0.162845798280331	-0.162845798280331	-0.162845798280331	-0.162845798280331	-0.162845798280331
-0.15733315743039	-0.15733315743039	-0.15733315743039	-0.15733315743039	-0.15733315743039	-0.15733315743039
-0.151163915370767	-0.151163915370767	-0.151163915370767	-0.151163915370767	-0.151163915370767	-0.151163915370767
-0.14431308138571	-0.14431308138571	-0.14431308138571	-0.14431308138571	-0.14431308138571	-0.14431308138571
-0.136758316430373	-0.136758316430373	-0.136758316430373	-0.136758316430373	-0.136758316430373	-0.136758316430373
-0.128479933130824	-0.128479933130824	-0.128479933130824	-0.128479933130824	-0.128479933130824	-0.128479933130824
-0.119460895784037	-0.119460895784037	-0.119460895784037	-0.119460895784037	-0.119460895784037	-0.119460895784037
-0.1096868203579	-0.1096868203579	-0.1096868203579	-0.1096868203579	-0.1096868203579	-0.1096868203579
-0.0991744389600115	-0.0991744389600115	-0.0991744389600115	-0.0991744389600115	-0.0991744389600115	-0.0991744389600115
-0.0881238225627212	-0.0881238225627212	-0.0881238225627212	-0.0881238225627212	-0.0881238225627212	-0.0881238225627212
-0.0767446389321868	-0.0767446389321868	-0.0767446389321868	-0.0767446389321868	-0.0767446389321868	-0.0767446389321868
-0.0652422204565341	-0.0652422204565341	-0.0652422204565341	-0.0652422204565341	-0.0652422204565341	-0.0652422204565341
-0.053825617093106	-0.053825617093106	-0.053825617093106	-0.053825617093106	-0.053825617093106	-0.053825617093106
-0.0427075963684626	-0.0427075963684626	-0.0427075963684626	-0.0427075963684626	-0.0427075963684626	-0.0427075963684626
-0.0321046433783813	-0.0321046433783813	-0.0321046433783813	-0.0321046433783813	-0.0321046433783813	-0.0321046433783813
-0.0222369607878564	-0.0222369607878564	-0.0222369607878564	-0.0222369607878564	-0.0222369607878564	-0.0222369607878564
-0.0133284688311	-0.0133284688311	-0.0133284688311	-0.0133284688311	-0.0133284688311	-0.0133284688311
-0.00560680531154084	-0.00560680531154084	-0.00560680531154084	-0.00560680531154084	-0.00560680531154084	-0.00560680531154084
0.000696674398174779	0.000696674398174779	0.000696674398174779	0.000696674398174779	0.000696674398174779	0.000696674398174779
0.00536530663756318	0.00536530663756318	0.00536530663756318	0.00536530663756318	0.00536530663756318	0.00536530663756318
0.00829233877906405	0.00829233877906405	0.00829233877906405	0.00829233877906405	0.00829233877906405	0.00829233877906405
0.00941687188178936	0.00941687188178936	0.00941687188178936	0.00941687188178936	0.00941687188178936	0.00941687188178936
0.00871656013926392	0.00871656013926392	0.00871656013926392	0.00871656013926392	0.00871656013926392	0.00871656013926392
0.00621006674063024	0.00621006674063024	0.00621006674063024	0.00621006674063024	0.00621006674063024	0.00621006674063024
0.0019570638706487	0.0019570638706487	0.0019570638706487	0.0019570638706487	0.0019570638706487	0.0019570638706487
-0.00394176729030254	-0.00394176729030254	-0.00394176729030254	-0.00394176729030254	-0.00394176729030254	-0.00394176729030254
-0.0113447365662275	-0.0113447365662275	-0.0113447365662275	-0.0113447365662275	-0.0113447365662275	-0.0113447365662275
-0.0200691447855125	-0.0200691447855125	-0.0200691447855125	-0.0200691447855125	-0.0200691447855125	-0.0200691447855125
-0.0298912837809258	-0.0298912837809258	-0.0298912837809258	-0.0298912837809258	-0.0298912837809258	-0.0298912837809258
-0.0405464363896177	-0.0405464363896177	-0.0405464363896177	-0.0405464363896177	-0.0405464363896177	-0.0405464363896177
-0.0517616745597433	-0.0517616745597433	-0.0517616745597433	-0.0517616745597433	-0.0517616745597433	-0.0517616745597433
-0.0633226387992862	-0.0633226387992862	-0.0633226387992862	-0.0633226387992862	-0.0633226387992862	-0.0633226387992862
-0.0749799410282616	-0.0749799410282616	-0.0749799410282616	-0.0749799410282616	-0.0749799410282616	-0.0749799410282616
-0.0865101349727657	-0.0865101349727657	-0.0865101349727657	-0.0865101349727657	-0.0865101349727657	-0.0865101349727657
-0.0977197431824036	-0.0977197431824036	-0.0977197431824036	-0.0977197431824036	-0.0977197431824036	-0.0977197431824036
-0.108445257030288	-0.108445257030288	-0.108445257030288	-0.108445257030288	-0.108445257030288	-0.108445257030288
-0.118553136713042	-0.118553136713042	-0.118553136713042	-0.118553136713042	-0.118553136713042	-0.118553136713042
-0.127939811250795	-0.127939811250795	-0.127939811250795	-0.127939811250795	-0.127939811250795	-0.127939811250795
-0.136531678487186	-0.136531678487186	-0.136531678487186	-0.136531678487186	-0.136531678487186	-0.136531678487186
-0.144285105089362	-0.144285105089362	-0.144285105089362	-0.144285105089362	-0.144285105089362	-0.144285105089362
-0.151201263784827	-0.151201263784827	-0.151201263784827	-0.151201263784827	-0.151201263784827	-0.151201263784827
-0.157381522595755	-0.157381522595755	-0.157381522595755	-0.157381522595755	-0.157381522595755	-0.157381522595755
-0.162765335112872	-0.162765335112872	-0.162765335112872	-0.162765335112872	-0.162765335112872	-0.162765335112872
-0.167309980305099	-0.167309980305099	-0.167309980305099	-0.167309980305099	-0.167309980305099	-0.167309980305099
-0.171036050093497	-0.171036050093497	-0.171036050093497	-0.171036050093497	-0.171036050093497	-0.171036050093497
-0.174027449351263	-0.174027449351263	-0.174027449351263	-0.174027449351263	-0.174027449351263	-0.174027449351263
-0.176431395903737	-0.176431395903737	-0.176431395903737	-0.176431395903737	-0.176431395903737	-0.176431395903737
-0.178458420528395	-0.178458420528395	-0.178458420528395	-0.178458420528395	-0.178458420528395	-0.178458420528395
-0.180382366954854	-0.180382366954854	-0.180382366954854	-0.180382366954854	-0.180382366954854	-0.180382366954854
-0.182540391864867	-0.182540391864867	-0.182540391864867	-0.182540391864867	-0.182540391864867	-0.182540391864867
-0.18533296489233	-0.18533296489233	-0.18533296489233	-0.18533296489233	-0.18533296489233	-0.18533296489233
-0.189223868623275	-0.189223868623275	-0.189223868623275	-0.189223868623275	-0.189223868623275	-0.189223868623275
-0.194715089153696	-0.194715089153696	-0.194715089153696	-0.194715089153696	-0.194715089153696	-0.194715089153696
-0.202537055335145	-0.202537055335145	-0.202537055335145	-0.202537055335145	-0.202537055335145	-0.202537055335145
-0.213538822358542	-0.213538822358542	-0.213538822358542	-0.213538822358542	-0.213538822358542	-0.213538822358542
-0.227814917718553	-0.227814917718553	-0.227814917718553	-0.227814917718553	-0.227814917718553	-0.227814917718553
-0.244641861958516	-0.244641861958516	-0.244641861958516	-0.244641861958516	-0.244641861958516	-0.244641861958516
-0.262478168670443	-0.262478168670443	-0.262478168670443	-0.262478168670443	-0.262478168670443	-0.262478168670443
-0.278965188597719	-0.278965188597719	-0.278965188597719	-0.278965188597719	-0.278965188597719	-0.278965188597719
-0.291121765732644	-0.291121765732644	-0.291121765732644	-0.291121765732644	-0.291121765732644	-0.291121765732644
-0.294659448693949	-0.294659448693949	-0.294659448693949	-0.294659448693949	-0.294659448693949	-0.294659448693949
-0.285299431692463	-0.285299431692463	-0.285299431692463	-0.285299431692463	-0.285299431692463	-0.285299431692463
-0.259493042494689	-0.259493042494689	-0.259493042494689	-0.259493042494689	-0.259493042494689	-0.259493042494689
-0.214421742422807	-0.214421742422807	-0.214421742422807	-0.214421742422807	-0.214421742422807	-0.214421742422807
-0.147997126354676	-0.147997126354676	-0.147997126354676	-0.147997126354676	-0.147997126354676	-0.147997126354676
-0.0587765995940651	-0.0587765995940651	-0.0587765995940651	-0.0587765995940651	-0.0587765995940651	-0.0587765995940651
0.0512895472641288	0.0512895472641288	0.0512895472641288	0.0512895472641288	0.0512895472641288	0.0512895472641288
0.174523048819258	0.174523048819258	0.174523048819258	0.174523048819258	0.174523048819258	0.174523048819258
0.30123249485845	0.30123249485845	0.30123249485845	0.30123249485845	0.30123249485845	0.30123249485845
0.419979796269684	0.419979796269684	0.419979796269684	0.419979796269684	0.419979796269684	0.419979796269684
0.517580185041787	0.517580185041787	0.517580185041787	0.517580185041787	0.517580185041787	0.517580185041787
0.579102214264435	0.579102214264435	0.579102214264435	0.579102214264435	0.579102214264435	0.579102214264435
0.59349836868673	0.59349836868673	0.59349836868673	0.59349836868673	0.59349836868673	0.59349836868673
0.555758902909718	0.555758902909718	0.555758902909718	0.555758902909718	0.555758902909718	0.555758902909718
0.468241579822055	0.468241579822055	0.468241579822055	0.468241579822055	0.468241579822055	0.468241579822055
0.347090405931793	0.347090405931793	0.347090405931793	0.347090405931793	0.347090405931793	0.347090405931793
0.212060697221	0.212060697221	0.212060697221	0.212060697221	0.212060697221	0.212060697221
0.0746701742947909	0.0746701742947909	0.0746701742947909	0.0746701742947909	0.0746701742947909	0.0746701742947909
-0.0523137319530078	-0.0523137319530078	-0.0523137319530078	-0.0523137319530078	-0.0523137319530078	-0.0523137319530078
-0.160065149622122	-0.160065149622122	-0.160065149622122	-0.160065149622122	-0.160065149622122	-0.160065149622122
-0.243456048487321	-0.243456048487321	-0.243456048487321	-0.243456048487321	-0.243456048487321	-0.243456048487321
-0.301162897472142	-0.301162897472142	-0.301162897472142	-0.301162897472142	-0.301162897472142	-0.301162897472142
-0.334249013725433	-0.334249013725433	-0.334249013725433	-0.334249013725433	-0.334249013725433	-0.334249013725433
-0.345213492140845	-0.345213492140845	-0.345213492140845	-0.345213492140845	-0.345213492140845	-0.345213492140845
-0.337989927235877	-0.337989927235877	-0.337989927235877	-0.337989927235877	-0.337989927235877	-0.337989927235877
-0.317946413151876	-0.317946413151876	-0.317946413151876	-0.317946413151876	-0.317946413151876	-0.317946413151876
-0.290997516697338	-0.290997516697338	-0.290997516697338	-0.290997516697338	-0.290997516697338	-0.290997516697338
-0.261994046965924	-0.261994046965924	-0.261994046965924	-0.261994046965924	-0.261994046965924	-0.261994046965924
-0.234770096305397	-0.234770096305397	-0.234770096305397	-0.234770096305397	-0.234770096305397	-0.234770096305397
-0.211787561260965	-0.211787561260965	-0.211787561260965	-0.211787561260965	-0.211787561260965	-0.211787561260965
-0.194136130253995	-0.194136130253995	-0.194136130253995	-0.194136130253995	-0.194136130253995	-0.194136130253995
-0.181533840609164	-0.181533840609164	-0.181533840609164	-0.181533840609164	-0.181533840609164	-0.181533840609164
-0.172916003432757	-0.172916003432757	-0.172916003432757	-0.172916003432757	-0.172916003432757	-0.172916003432757
-0.167275253459653	-0.167275253459653	-0.167275253459653	-0.167275253459653	-0.167275253459653	-0.167275253459653
-0.163611766829867	-0.163611766829867	-0.163611766829867	-0.163611766829867	-0.163611766829867	-0.163611766829867
-0.161123758472852	-0.161123758472852	-0.161123758472852	-0.161123758472852	-0.161123758472852	-0.161123758472852
-0.159207482107499	-0.159207482107499	-0.159207482107499	-0.159207482107499	-0.159207482107499	-0.159207482107499
-0.157457230242136	-0.157457230242136	-0.157457230242136	-0.157457230242136	-0.157457230242136	-0.157457230242136
-0.155665334174529	-0.155665334174529	-0.155665334174529	-0.155665334174529	-0.155665334174529	-0.155665334174529
-0.153800721490539	-0.153800721490539	-0.153800721490539	-0.153800721490539	-0.153800721490539	-0.153800721490539
-0.151775730706654	-0.151775730706654	-0.151775730706654	-0.151775730706654	-0.151775730706654	-0.151775730706654
-0.14953577039525	-0.14953577039525	-0.14953577039525	-0.14953577039525	-0.14953577039525	-0.14953577039525
-0.147049366899348	-0.147049366899348	-0.147049366899348	-0.147049366899348	-0.147049366899348	-0.147049366899348
