1.09236166827762	1.09236166827762	1.09236166827762	1.09236166827762	1.09236166827762	1.09236166827762
1.04545297876101	1.04545297876101	1.04545297876101	1.04545297876101	1.04545297876101	1.04545297876101
0.922827690289514	0.922827690289514	0.922827690289514	0.922827690289514	0.922827690289514	0.922827690289514
0.743450195282905	0.743450195282905	0.743450195282905	0.743450195282905	0.743450195282905	0.743450195282905
0.532888185905186	0.532888185905186	0.532888185905186	0.532888185905186	0.532888185905186	0.532888185905186
0.314351427812467	0.314351427812467	0.314351427812467	0.314351427812467	0.314351427812467	0.314351427812467
0.108487996490677	0.108487996490677	0.108487996490677	0.108487996490677	0.108487996490677	0.108487996490677
-0.0675863169417998	-0.0675863169417998	-0.0675863169417998	-0.0675863169417998	-0.0675863169417998	-0.0675863169417998
-0.2058541829445	-0.2058541829445	-0.2058541829445	-0.2058541829445	-0.2058541829445	-0.2058541829445
-0.303733843031619	-0.303733843031619	-0.303733843031619	-0.303733843031619	-0.303733843031619	-0.303733843031619
-0.361672226041074	-0.361672226041074	-0.361672226041074	-0.361672226041074	-0.361672226041074	-0.361672226041074
-0.383148507944551	-0.383148507944551	-0.383148507944551	-0.383148507944551	-0.383148507944551	-0.383148507944551
-0.374674111847504	-0.374674111847504	-0.374674111847504	-0.374674111847504	-0.374674111847504	-0.374674111847504
-0.345016652516256	-0.345016652516256	-0.345016652516256	-0.345016652516256	-0.345016652516256	-0.345016652516256
-0.302885696218114	-0.302885696218114	-0.302885696218114	-0.302885696218114	-0.302885696218114	-0.302885696218114
-0.256737481511422	-0.256737481511422	-0.256737481511422	-0.256737481511422	-0.256737481511422	-0.256737481511422
-0.212900687723602	-0.212900687723602	-0.212900687723602	-0.212900687723602	-0.212900687723602	-0.212900687723602
-0.175498200509751	-0.175498200509751	-0.175498200509751	-0.175498200509751	-0.175498200509751	-0.175498200509751
-0.146447111852633	-0.146447111852633	-0.146447111852633	-0.146447111852633	-0.146447111852633	-0.146447111852633
-0.125463937481273	-0.125463937481273	-0.125463937481273	-0.125463937481273	-0.125463937481273	-0.125463937481273
-0.111028655885254	-0.111028655885254	-0.111028655885254	-0.111028655885254	-0.111028655885254	-0.111028655885254
-0.101526309370113	-0.101526309370113	-0.101526309370113	-0.101526309370113	-0.101526309370113	-0.101526309370113
-0.0953689541876304	-0.0953689541876304	-0.0953689541876304	-0.0953689541876304	-0.0953689541876304	-0.0953689541876304
-0.0912584037822823	-0.0912584037822823	-0.0912584037822823	-0.0912584037822823	-0.0912584037822823	-0.0912584037822823
-0.0881862287912354	-0.0881862287912354	-0.0881862287912354	-0.0881862287912354	-0.0881862287912354	-0.0881862287912354
-0.0854337570443499	-0.0854337570443499	-0.0854337570443499	-0.0854337570443499	-0.0854337570443499	-0.0854337570443499
-0.0825720735641779	-0.0825720735641779	-0.0825720735641779	-0.0825720735641779	-0.0825720735641779	-0.0825720735641779
-0.0794620205659645	-0.0794620205659645	-0.0794620205659645	-0.0794620205659645	-0.0794620205659645	-0.0794620205659645
-0.0761925543160792	-0.0761925543160792	-0.0761925543160792	-0.0761925543160792	-0.0761925543160792	-0.0761925543160792
-0.0726146139135806	-0.0726146139135806	-0.0726146139135806	-0.0726146139135806	-0.0726146139135806	-0.0726146139135806
-0.0686449017129575	-0.0686449017129575	-0.0686449017129575	-0.0686449017129575	-0.0686449017129575	-0.0686449017129575
-0.0642367995208684	-0.0642367995208684	-0.0642367995208684	-0.0642367995208684	-0.0642367995208684	-0.0642367995208684
-0.0593450587795985	-0.0593450587795985	-0.0593450587795985	-0.0593450587795985	-0.0593450587795985	-0.0593450587795985
-0.0539258005670584	-0.0539258005670584	-0.0539258005670584	-0.0539258005670584	-0.0539258005670584	-0.0539258005670584
-0.0479365155967852	-0.0479365155967852	-0.0479365155967852	-0.0479365155967852	-0.0479365155967852	-0.0479365155967852
-0.0413360642179418	-0.0413360642179418	-0.0413360642179418	-0.0413360642179418	-0.0413360642179418	-0.0413360642179418
-0.0340846764153171	-0.0340846764153171	-0.0340846764153171	-0.0340846764153171	-0.0340846764153171	-0.0340846764153171
-0.0261439518093262	-0.0261439518093262	-0.0261439518093262	-0.0261439518093262	-0.0261439518093262	-0.0261439518093262
-0.0174804583160351	-0.0174804583160351	-0.0174804583160351	-0.0174804583160351	-0.0174804583160351	-0.0174804583160351
-0.00808674991482289	-0.00808674991482289	-0.00808674991482289	-0.00808674991482289	-0.00808674991482289	-0.00808674991482289
0.00207117695990988	0.00207117695990988	0.00207117695990988	0.00207117695990988	0.00207117695990988	0.00207117695990988
0.0130234679173135	0.0130234679173135	0.0130234679173135	0.0130234679173135	0.0130234679173135	0.0130234679173135
0.0247873446404367	0.0247873446404367	0.0247873446404367	0.0247873446404367	0.0247873446404367	0.0247873446404367
0.0373671048862266	0.0373671048862266	0.0373671048862266	0.0373671048862266	0.0373671048862266	0.0373671048862266
0.050754122485529	0.050754122485529	0.050754122485529	0.050754122485529	0.050754122485529	0.050754122485529
0.0649268473430885	0.0649268473430885	0.0649268473430885	0.0649268473430885	0.0649268473430885	0.0649268473430885
0.0798508054375477	0.0798508054375477	0.0798508054375477	0.0798508054375477	0.0798508054375477	0.0798508054375477
0.0954785988214487	0.0954785988214487	0.0954785988214487	0.0954785988214487	0.0954785988214487	0.0954785988214487
0.111749905621231	0.111749905621231	0.111749905621231	0.111749905621231	0.111749905621231	0.111749905621231
0.128591480037233	0.128591480037233	0.128591480037233	0.128591480037233	0.128591480037233	0.128591480037233
0.145917152343693	0.145917152343693	0.145917152343693	0.145917152343693	0.145917152343693	0.145917152343693
0.163627828888745	0.163627828888745	0.163627828888745	0.163627828888745	0.163627828888745	0.163627828888745
0.181611492094425	0.181611492094425	0.181611492094425	0.181611492094425	0.181611492094425	0.181611492094425
0.199743200456664	0.199743200456664	0.199743200456664	0.199743200456664	0.199743200456664	0.199743200456664
0.217885088545295	0.217885088545295	0.217885088545295	0.217885088545295	0.217885088545295	0.217885088545295
0.235886367004047	0.235886367004047	0.235886367004047	0.235886367004047	0.235886367004047	0.235886367004047
0.253583322550548	0.253583322550548	0.253583322550548	0.253583322550548	0.253583322550548	0.253583322550548
0.270806186081306	0.270806186081306	0.270806186081306	0.270806186081306	0.270806186081306	0.270806186081306
0.28745084441071	0.28745084441071	0.28745084441071	0.28745084441071	0.28745084441071	0.28745084441071
0.303340639020317	0.303340639020317	0.303340639020317	0.303340639020317	0.303340639020317	0.303340639020317
0.318285745922867	0.318285745922867	0.318285745922867	0.318285745922867	0.318285745922867	0.318285745922867
0.332113701116867	0.332113701116867	0.332113701116867	0.332113701116867	0.332113701116867	0.332113701116867
0.344669400586595	0.344669400586595	0.344669400586595	0.344669400586595	0.344669400586595	0.344669400586595
0.355815100302097	0.355815100302097	0.355815100302097	0.355815100302097	0.355815100302097	0.355815100302097
0.365430416219191	0.365430416219191	0.365430416219191	0.365430416219191	0.365430416219191	0.365430416219191
0.37341232427946	0.37341232427946	0.37341232427946	0.37341232427946	0.37341232427946	0.37341232427946
0.37967516041026	0.37967516041026	0.37967516041026	0.37967516041026	0.37967516041026	0.37967516041026
0.384150620524714	0.384150620524714	0.384150620524714	0.384150620524714	0.384150620524714	0.384150620524714
0.386787760521716	0.386787760521716	0.386787760521716	0.386787760521716	0.386787760521716	0.386787760521716
0.387552996285927	0.387552996285927	0.387552996285927	0.387552996285927	0.387552996285927	0.387552996285927
0.386430103687779	0.386430103687779	0.386430103687779	0.386430103687779	0.386430103687779	0.386430103687779
0.383420218583472	0.383420218583472	0.383420218583472	0.383420218583472	0.383420218583472	0.383420218583472
0.378541836814977	0.378541836814977	0.378541836814977	0.378541836814977	0.378541836814977	0.378541836814977
0.371726895663408	0.371726895663408	0.371726895663408	0.371726895663408	0.371726895663408	0.371726895663408
0.363003188256198	0.363003188256198	0.363003188256198	0.363003188256198	0.363003188256198	0.363003188256198
0.352563237463527	0.352563237463527	0.352563237463527	0.352563237463527	0.352563237463527	0.352563237463527
0.340593703057916	0.340593703057916	0.340593703057916	0.340593703057916	0.340593703057916	0.340593703057916
0.327275280352859	0.327275280352859	0.327275280352859	0.327275280352859	0.327275280352859	0.327275280352859
0.312782700202831	0.312782700202831	0.312782700202831	0.312782700202831	0.312782700202831	0.312782700202831
0.297284729003282	0.297284729003282	0.297284729003282	0.297284729003282	0.297284729003282	0.297284729003282
0.280944168690639	0.280944168690639	0.280944168690639	0.280944168690639	0.280944168690639	0.280944168690639
0.263917856742306	0.263917856742306	0.263917856742306	0.263917856742306	0.263917856742306	0.263917856742306
0.246356666176665	0.246356666176665	0.246356666176665	0.246356666176665	0.246356666176665	0.246356666176665
0.228405505553073	0.228405505553073	0.228405505553073	0.228405505553073	0.228405505553073	0.228405505553073
0.210203318971867	0.210203318971867	0.210203318971867	0.210203318971867	0.210203318971867	0.210203318971867
0.191883086074357	0.191883086074357	0.191883086074357	0.191883086074357	0.191883086074357	0.191883086074357
0.173571822042834	0.173571822042834	0.173571822042834	0.173571822042834	0.173571822042834	0.173571822042834
0.155390577600563	0.155390577600563	0.155390577600563	0.155390577600563	0.155390577600563	0.155390577600563
0.137454439011788	0.137454439011788	0.137454439011788	0.137454439011788	0.137454439011788	0.137454439011788
0.119872528081729	0.119872528081729	0.119872528081729	0.119872528081729	0.119872528081729	0.119872528081729
0.102748002156584	0.102748002156584	0.102748002156584	0.102748002156584	0.102748002156584	0.102748002156584
0.086178054123525	0.086178054123525	0.086178054123525	0.086178054123525	0.086178054123525	0.086178054123525
0.0702539124107049	0.0702539124107049	0.0702539124107049	0.0702539124107049	0.0702539124107049	0.0702539124107049
0.0550608409872511	0.0550608409872511	0.0550608409872511	0.0550608409872511	0.0550608409872511	0.0550608409872511
0.0406781393632693	0.0406781393632693	0.0406781393632693	0.0406781393632693	0.0406781393632693	0.0406781393632693
0.0271791425898412	0.0271791425898412	0.0271791425898412	0.0271791425898412	0.0271791425898412	0.0271791425898412
0.0146304682766996	0.0146304682766996	0.0146304682766996	0.0146304682766996	0.0146304682766996	0.0146304682766996
0.00305012775848673	0.00305012775848673	0.00305012775848673	0.00305012775848673	0.00305012775848673	0.00305012775848673
-0.00759667301384587	-0.00759667301384587	-0.00759667301384587	-0.00759667301384587	-0.00759667301384587	-0.00759667301384587
-0.0173456653194465	-0.0173456653194465	-0.0173456653194465	-0.0173456653194465	-0.0173456653194465	-0.0173456653194465
-0.0262329533352281	-0.0262329533352281	-0.0262329533352281	-0.0262329533352281	-0.0262329533352281	-0.0262329533352281
-0.0342950141358678	-0.0342950141358678	-0.0342950141358678	-0.0342950141358678	-0.0342950141358678	-0.0342950141358678
-0.0415686976938075	-0.0415686976938075	-0.0415686976938075	-0.0415686976938075	-0.0415686976938075	-0.0415686976938075
-0.0480912268792533	-0.0480912268792533	-0.0480912268792533	-0.0480912268792533	-0.0480912268792533	-0.0480912268792533
-0.0539001974601758	-0.0539001974601758	-0.0539001974601758	-0.0539001974601758	-0.0539001974601758	-0.0539001974601758
-0.05903357810231	-0.05903357810231	-0.05903357810231	-0.05903357810231	-0.05903357810231	-0.05903357810231
-0.0635297103691557	-0.0635297103691557	-0.0635297103691557	-0.0635297103691557	-0.0635297103691557	-0.0635297103691557
-0.0674273087219767	-0.0674273087219767	-0.0674273087219767	-0.0674273087219767	-0.0674273087219767	-0.0674273087219767
-0.0707654605198015	-0.0707654605198015	-0.0707654605198015	-0.0707654605198015	-0.0707654605198015	-0.0707654605198015
-0.0735836260194229	-0.0735836260194229	-0.0735836260194229	-0.0735836260194229	-0.0735836260194229	-0.0735836260194229
-0.0759216383753982	-0.0759216383753982	-0.0759216383753982	-0.0759216383753982	-0.0759216383753982	-0.0759216383753982
-0.0778197036400494	-0.0778197036400494	-0.0778197036400494	-0.0778197036400494	-0.0778197036400494	-0.0778197036400494
-0.0793184007634625	-0.0793184007634625	-0.0793184007634625	-0.0793184007634625	-0.0793184007634625	-0.0793184007634625
-0.0804586815934884	-0.0804586815934884	-0.0804586815934884	-0.0804586815934884	-0.0804586815934884	-0.0804586815934884
-0.081281870875742	-0.081281870875742	-0.081281870875742	-0.081281870875742	-0.081281870875742	-0.081281870875742
-0.0818296662536031	-0.0818296662536031	-0.0818296662536031	-0.0818296662536031	-0.0818296662536031	-0.0818296662536031
-0.0821441382682155	-0.0821441382682155	-0.0821441382682155	-0.0821441382682155	-0.0821441382682155	-0.0821441382682155
-0.082267730358488	-0.082267730358488	-0.082267730358488	-0.082267730358488	-0.082267730358488	-0.082267730358488
-0.0822414823079584	-0.0822414823079584	-0.0822414823079584	-0.0822414823079584	-0.0822414823079584	-0.0822414823079584
-0.0820798504784108	-0.0820798504784108	-0.0820798504784108	-0.0820798504784108	-0.0820798504784108	-0.0820798504784108
-0.0817929181561818	-0.0817929181561818	-0.0817929181561818	-0.0817929181561818	-0.0817929181561818	-0.0817929181561818
-0.0813935584026368	-0.0813935584026368	-0.0813935584026368	-0.0813935584026368	-0.0813935584026368	-0.0813935584026368
-0.0808940026028462	-0.0808940026028462	-0.0808940026028462	-0.0808940026028462	-0.0808940026028462	-0.0808940026028462
-0.0803058404655857	-0.0803058404655857	-0.0803058404655857	-0.0803058404655857	-0.0803058404655857	-0.0803058404655857
-0.0796400200233367	-0.0796400200233367	-0.0796400200233367	-0.0796400200233367	-0.0796400200233367	-0.0796400200233367
-0.0789068476322859	-0.0789068476322859	-0.0789068476322859	-0.0789068476322859	-0.0789068476322859	-0.0789068476322859
-0.0781159879723254	-0.0781159879723254	-0.0781159879723254	-0.0781159879723254	-0.0781159879723254	-0.0781159879723254
-0.0772764640470526	-0.0772764640470526	-0.0772764640470526	-0.0772764640470526	-0.0772764640470526	-0.0772764640470526
-0.0763966571837705	-0.0763966571837705	-0.0763966571837705	-0.0763966571837705	-0.0763966571837705	-0.0763966571837705
-0.0754843070334874	-0.0754843070334874	-0.0754843070334874	-0.0754843070334874	-0.0754843070334874	-0.0754843070334874
-0.0745465115709171	-0.0745465115709171	-0.0745465115709171	-0.0745465115709171	-0.0745465115709171	-0.0745465115709171
-0.0735897270944787	-0.0735897270944787	-0.0735897270944787	-0.0735897270944787	-0.0735897270944787	-0.0735897270944787
-0.0726197682262968	-0.0726197682262968	-0.0726197682262968	-0.0726197682262968	-0.0726197682262968	-0.0726197682262968
-0.0716418079122013	-0.0716418079122013	-0.0716418079122013	-0.0716418079122013	-0.0716418079122013	-0.0716418079122013
-0.0706603774217276	-0.0706603774217276	-0.0706603774217276	-0.0706603774217276	-0.0706603774217276	-0.0706603774217276
-0.0696793663481165	-0.0696793663481165	-0.0696793663481165	-0.0696793663481165	-0.0696793663481165	-0.0696793663481165
-0.0687020226083143	-0.0687020226083143	-0.0687020226083143	-0.0687020226083143	-0.0687020226083143	-0.0687020226083143
-0.0677307936334338	-0.0677307936334338	-0.0677307936334338	-0.0677307936334338	-0.0677307936334338	-0.0677307936334338
-0.0667608999602865	-0.0667608999602865	-0.0667608999602865	-0.0667608999602865	-0.0667608999602865	-0.0667608999602865
-0.0657901439885359	-0.0657901439885359	-0.0657901439885359	-0.0657901439885359	-0.0657901439885359	-0.0657901439885359
-0.0648196723612222	-0.0648196723612222	-0.0648196723612222	-0.0648196723612222	-0.0648196723612222	-0.0648196723612222
-0.063850486316501	-0.063850486316501	-0.063850486316501	-0.063850486316501	-0.063850486316501	-0.063850486316501
-0.0628834416876433	-0.0628834416876433	-0.0628834416876433	-0.0628834416876433	-0.0628834416876433	-0.0628834416876433
-0.0619192489030356	-0.0619192489030356	-0.0619192489030356	-0.0619192489030356	-0.0619192489030356	-0.0619192489030356
-0.0609584729861795	-0.0609584729861795	-0.0609584729861795	-0.0609584729861795	-0.0609584729861795	-0.0609584729861795
-0.0600015335556922	-0.0600015335556922	-0.0600015335556922	-0.0600015335556922	-0.0600015335556922	-0.0600015335556922
-0.0590487048253063	-0.0590487048253063	-0.0590487048253063	-0.0590487048253063	-0.0590487048253063	-0.0590487048253063
-0.0581001156038699	-0.0581001156038699	-0.0581001156038699	-0.0581001156038699	-0.0581001156038699	-0.0581001156038699
-0.0571557492953461	-0.0571557492953461	-0.0571557492953461	-0.0571557492953461	-0.0571557492953461	-0.0571557492953461
-0.0562154438988138	-0.0562154438988138	-0.0562154438988138	-0.0562154438988138	-0.0562154438988138	-0.0562154438988138
-0.0552788920084671	-0.0552788920084671	-0.0552788920084671	-0.0552788920084671	-0.0552788920084671	-0.0552788920084671
-0.0543456408136154	-0.0543456408136154	-0.0543456408136154	-0.0543456408136154	-0.0543456408136154	-0.0543456408136154
-0.0534150920986836	-0.0534150920986836	-0.0534150920986836	-0.0534150920986836	-0.0534150920986836	-0.0534150920986836
-0.0524865022432122	-0.0524865022432122	-0.0524865022432122	-0.0524865022432122	-0.0524865022432122	-0.0524865022432122
-0.0515589822218567	-0.0515589822218567	-0.0515589822218567	-0.0515589822218567	-0.0515589822218567	-0.0515589822218567
-0.0506314976043882	-0.0506314976043882	-0.0506314976043882	-0.0506314976043882	-0.0506314976043882	-0.0506314976043882
-0.0497028685556931	-0.0497028685556931	-0.0497028685556931	-0.0497028685556931	-0.0497028685556931	-0.0497028685556931
-0.0487717698357734	-0.0487717698357734	-0.0487717698357734	-0.0487717698357734	-0.0487717698357734	-0.0487717698357734
-0.0478367307997462	-0.0478367307997462	-0.0478367307997462	-0.0478367307997462	-0.0478367307997462	-0.0478367307997462
-0.0468961353978442	-0.0468961353978442	-0.0468961353978442	-0.0468961353978442	-0.0468961353978442	-0.0468961353978442
-0.0459482221754153	-0.0459482221754153	-0.0459482221754153	-0.0459482221754153	-0.0459482221754153	-0.0459482221754153
-0.044991084272923	-0.044991084272923	-0.044991084272923	-0.044991084272923	-0.044991084272923	-0.044991084272923
-0.0440226694259462	-0.0440226694259462	-0.0440226694259462	-0.0440226694259462	-0.0440226694259462	-0.0440226694259462
-0.0430407799651789	-0.0430407799651789	-0.0430407799651789	-0.0430407799651789	-0.0430407799651789	-0.0430407799651789
-0.042036515458536	-0.042036515458536	-0.042036515458536	-0.042036515458536	-0.042036515458536	-0.042036515458536
-0.0409889661731191	-0.0409889661731191	-0.0409889661731191	-0.0409889661731191	-0.0409889661731191	-0.0409889661731191
-0.039895467875017	-0.039895467875017	-0.039895467875017	-0.039895467875017	-0.039895467875017	-0.039895467875017
-0.0387464431186979	-0.0387464431186979	-0.0387464431186979	-0.0387464431186979	-0.0387464431186979	-0.0387464431186979
-0.0375234870264058	-0.0375234870264058	-0.0375234870264058	-0.0375234870264058	-0.0375234870264058	-0.0375234870264058
-0.0361993672881601	-0.0361993672881601	-0.0361993672881601	-0.0361993672881601	-0.0361993672881601	-0.0361993672881601
-0.0347380241617556	-0.0347380241617556	-0.0347380241617556	-0.0347380241617556	-0.0347380241617556	-0.0347380241617556
-0.0330945704727627	-0.0330945704727627	-0.0330945704727627	-0.0330945704727627	-0.0330945704727627	-0.0330945704727627
-0.0312152916145269	-0.0312152916145269	-0.0312152916145269	-0.0312152916145269	-0.0312152916145269	-0.0312152916145269
-0.0290376455481697	-0.0290376455481697	-0.0290376455481697	-0.0290376455481697	-0.0290376455481697	-0.0290376455481697
-0.0264902628025876	-0.0264902628025876	-0.0264902628025876	-0.0264902628025876	-0.0264902628025876	-0.0264902628025876
-0.0234929464744529	-0.0234929464744529	-0.0234929464744529	-0.0234929464744529	-0.0234929464744529	-0.0234929464744529
-0.0199566722282132	-0.0199566722282132	-0.0199566722282132	-0.0199566722282132	-0.0199566722282132	-0.0199566722282132
-0.0157835882960914	-0.0157835882960914	-0.0157835882960914	-0.0157835882960914	-0.0157835882960914	-0.0157835882960914
-0.010911010281624	-0.010911010281624	-0.010911010281624	-0.010911010281624	-0.010911010281624	-0.010911010281624
-0.00526284884994888	-0.00526284884994888	-0.00526284884994888	-0.00526284884994888	-0.00526284884994888	-0.00526284884994888
0.00135126907790512	0.00135126907790512	0.00135126907790512	0.00135126907790512	0.00135126907790512	0.00135126907790512
0.00908518517931961	0.00908518517931961	0.00908518517931961	0.00908518517931961	0.00908518517931961	0.00908518517931961
0.0180521738521849	0.0180521738521849	0.0180521738521849	0.0180521738521849	0.0180521738521849	0.0180521738521849
0.0283249422149005	0.0283249422149005	0.0283249422149005	0.0283249422149005	0.0283249422149005	0.0283249422149005
0.0399356301063744	0.0399356301063744	0.0399356301063744	0.0399356301063744	0.0399356301063744	0.0399356301063744
0.0528758100860239	0.0528758100860239	0.0528758100860239	0.0528758100860239	0.0528758100860239	0.0528758100860239
0.0670964874337752	0.0670964874337752	0.0670964874337752	0.0670964874337752	0.0670964874337752	0.0670964874337752
0.0825081001500631	0.0825081001500631	0.0825081001500631	0.0825081001500631	0.0825081001500631	0.0825081001500631
0.0989805189558318	0.0989805189558318	0.0989805189558318	0.0989805189558318	0.0989805189558318	0.0989805189558318
0.116343047292534	0.116343047292534	0.116343047292534	0.116343047292534	0.116343047292534	0.116343047292534
0.134384421322131	0.134384421322131	0.134384421322131	0.134384421322131	0.134384421322131	0.134384421322131
0.152852809927094	0.152852809927094	0.152852809927094	0.152852809927094	0.152852809927094	0.152852809927094
0.171515863386302	0.171515863386302	0.171515863386302	0.171515863386302	0.171515863386302	0.171515863386302
0.189981464490762	0.189981464490762	0.189981464490762	0.189981464490762	0.189981464490762	0.189981464490762
0.20771515739192	0.20771515739192	0.20771515739192	0.20771515739192	0.20771515739192	0.20771515739192
0.224238164527066	0.224238164527066	0.224238164527066	0.224238164527066	0.224238164527066	0.224238164527066
0.239128187373089	0.239128187373089	0.239128187373089	0.239128187373089	0.239128187373089	0.239128187373089
0.252019406446487	0.252019406446487	0.252019406446487	0.252019406446487	0.252019406446487	0.252019406446487
0.262602481303357	0.262602481303357	0.262602481303357	0.262602481303357	0.262602481303357	0.262602481303357
0.270624550539402	0.270624550539402	0.270624550539402	0.270624550539402	0.270624550539402	0.270624550539402
0.275889231789927	0.275889231789927	0.275889231789927	0.275889231789927	0.275889231789927	0.275889231789927
0.278256621729842	0.278256621729842	0.278256621729842	0.278256621729842	0.278256621729842	0.278256621729842
0.277643296073659	0.277643296073659	0.277643296073659	0.277643296073659	0.277643296073659	0.277643296073659
0.274022309575495	0.274022309575495	0.274022309575495	0.274022309575495	0.274022309575495	0.274022309575495
0.267391102049995	0.267391102049995	0.267391102049995	0.267391102049995	0.267391102049995	0.267391102049995
0.257734480382577	0.257734480382577	0.257734480382577	0.257734480382577	0.257734480382577	0.257734480382577
0.245523947038325	0.245523947038325	0.245523947038325	0.245523947038325	0.245523947038325	0.245523947038325
0.231277509433803	0.231277509433803	0.231277509433803	0.231277509433803	0.231277509433803	0.231277509433803
0.215477186095825	0.215477186095825	0.215477186095825	0.215477186095825	0.215477186095825	0.215477186095825
0.198569006661461	0.198569006661461	0.198569006661461	0.198569006661461	0.198569006661461	0.198569006661461
0.180963011878032	0.180963011878032	0.180963011878032	0.180963011878032	0.180963011878032	0.180963011878032
0.163033253603111	0.163033253603111	0.163033253603111	0.163033253603111	0.163033253603111	0.163033253603111
0.145117794804526	0.145117794804526	0.145117794804526	0.145117794804526	0.145117794804526	0.145117794804526
0.127518709560357	0.127518709560357	0.127518709560357	0.127518709560357	0.127518709560357	0.127518709560357
0.110502083058938	0.110502083058938	0.110502083058938	0.110502083058938	0.110502083058938	0.110502083058938
0.0942980115988549	0.0942980115988549	0.0942980115988549	0.0942980115988549	0.0942980115988549	0.0942980115988549
0.0791006025889459	0.0791006025889459	0.0791006025889459	0.0791006025889459	0.0791006025889459	0.0791006025889459
0.065067974548303	0.065067974548303	0.065067974548303	0.065067974548303	0.065067974548303	0.065067974548303
0.0523222571062715	0.0523222571062715	0.0523222571062715	0.0523222571062715	0.0523222571062715	0.0523222571062715
0.0409495910024491	0.0409495910024491	0.0409495910024491	0.0409495910024491	0.0409495910024491	0.0409495910024491
0.0310001280866858	0.0310001280866858	0.0310001280866858	0.0310001280866858	0.0310001280866858	0.0310001280866858
0.0224213939708413	0.0224213939708413	0.0224213939708413	0.0224213939708413	0.0224213939708413	0.0224213939708413
0.0150259735488676	0.0150259735488676	0.0150259735488676	0.0150259735488676	0.0150259735488676	0.0150259735488676
0.00887170442883312	0.00887170442883312	0.00887170442883312	0.00887170442883312	0.00887170442883312	0.00887170442883312
0.00391543193320676	0.00391543193320676	0.00391543193320676	0.00391543193320676	0.00391543193320676	0.00391543193320676
-1.74760863203005e-05	-1.74760863203005e-05	-1.74760863203005e-05	-1.74760863203005e-05	-1.74760863203005e-05	-1.74760863203005e-05
-0.00323312924883501	-0.00323312924883501	-0.00323312924883501	-0.00323312924883501	-0.00323312924883501	-0.00323312924883501
-0.00616911464420206	-0.00616911464420206	-0.00616911464420206	-0.00616911464420206	-0.00616911464420206	-0.00616911464420206
-0.00939449683306431	-0.00939449683306431	-0.00939449683306431	-0.00939449683306431	-0.00939449683306431	-0.00939449683306431
-0.0136098178468426	-0.0136098178468426	-0.0136098178468426	-0.0136098178468426	-0.0136098178468426	-0.0136098178468426
-0.0196470971877356	-0.0196470971877356	-0.0196470971877356	-0.0196470971877356	-0.0196470971877356	-0.0196470971877356
-0.0283482599489396	-0.0283482599489396	-0.0283482599489396	-0.0283482599489396	-0.0283482599489396	-0.0283482599489396
-0.0412260862949197	-0.0412260862949197	-0.0412260862949197	-0.0412260862949197	-0.0412260862949197	-0.0412260862949197
-0.059527444767449	-0.059527444767449	-0.059527444767449	-0.059527444767449	-0.059527444767449	-0.059527444767449
-0.0830970606492475	-0.0830970606492475	-0.0830970606492475	-0.0830970606492475	-0.0830970606492475	-0.0830970606492475
-0.110368225372644	-0.110368225372644	-0.110368225372644	-0.110368225372644	-0.110368225372644	-0.110368225372644
-0.138362796519577	-0.138362796519577	-0.138362796519577	-0.138362796519577	-0.138362796519577	-0.138362796519577
-0.162779295458846	-0.162779295458846	-0.162779295458846	-0.162779295458846	-0.162779295458846	-0.162779295458846
-0.177906979678572	-0.177906979678572	-0.177906979678572	-0.177906979678572	-0.177906979678572	-0.177906979678572
-0.175887168405712	-0.175887168405712	-0.175887168405712	-0.175887168405712	-0.175887168405712	-0.175887168405712
-0.149820358558423	-0.149820358558423	-0.149820358558423	-0.149820358558423	-0.149820358558423	-0.149820358558423
-0.0942097125593524	-0.0942097125593524	-0.0942097125593524	-0.0942097125593524	-0.0942097125593524	-0.0942097125593524
-0.0049610583356462	-0.0049610583356462	-0.0049610583356462	-0.0049610583356462	-0.0049610583356462	-0.0049610583356462
0.120617110681056	0.120617110681056	0.120617110681056	0.120617110681056	0.120617110681056	0.120617110681056
0.28302978087692	0.28302978087692	0.28302978087692	0.28302978087692	0.28302978087692	0.28302978087692
0.473195247870738	0.473195247870738	0.473195247870738	0.473195247870738	0.473195247870738	0.473195247870738
0.675384479058998	0.675384479058998	0.675384479058998	0.675384479058998	0.675384479058998	0.675384479058998
0.870522347565367	0.870522347565367	0.870522347565367	0.870522347565367	0.870522347565367	0.870522347565367
1.03619377917757	1.03619377917757	1.03619377917757	1.03619377917757	1.03619377917757	1.03619377917757
1.14664538705421	1.14664538705421	1.14664538705421	1.14664538705421	1.14664538705421	1.14664538705421
1.17934567705653	1.17934567705653	1.17934567705653	1.17934567705653	1.17934567705653	1.17934567705653
1.13203501198677	1.13203501198677	1.13203501198677	1.13203501198677	1.13203501198677	1.13203501198677
1.01243056072256	1.01243056072256	1.01243056072256	1.01243056072256	1.01243056072256	1.01243056072256
0.835327419186581	0.835327419186581	0.835327419186581	0.835327419186581	0.835327419186581	0.835327419186581
0.622598610346535	0.622598610346535	0.622598610346535	0.622598610346535	0.622598610346535	0.622598610346535
0.402658868030716	0.402658868030716	0.402658868030716	0.402658868030716	0.402658868030716	0.402658868030716
0.19794492181972	0.19794492181972	0.19794492181972	0.19794492181972	0.19794492181972	0.19794492181972
0.0217197731956797	0.0217197731956797	0.0217197731956797	0.0217197731956797	0.0217197731956797	0.0217197731956797
-0.11712386055661	-0.11712386055661	-0.11712386055661	-0.11712386055661	-0.11712386055661	-0.11712386055661
-0.21454961565183	-0.21454961565183	-0.21454961565183	-0.21454961565183	-0.21454961565183	-0.21454961565183
-0.271377481804138	-0.271377481804138	-0.271377481804138	-0.271377481804138	-0.271377481804138	-0.271377481804138
-0.291997522418371	-0.291997522418371	-0.291997522418371	-0.291997522418371	-0.291997522418371	-0.291997522418371
-0.283084403312179	-0.283084403312179	-0.283084403312179	-0.283084403312179	-0.283084403312179	-0.283084403312179
-0.253888383169428	-0.253888383169428	-0.253888383169428	-0.253888383169428	-0.253888383169428	-0.253888383169428
-0.212722197580787	-0.212722197580787	-0.212722197580787	-0.212722197580787	-0.212722197580787	-0.212722197580787
-0.16687600083703	-0.16687600083703	-0.16687600083703	-0.16687600083703	-0.16687600083703	-0.16687600083703
-0.122617365929029	-0.122617365929029	-0.122617365929029	-0.122617365929029	-0.122617365929029	-0.122617365929029
-0.085107518241076	-0.085107518241076	-0.085107518241076	-0.085107518241076	-0.085107518241076	-0.085107518241076
-0.0562596545942247	-0.0562596545942247	-0.0562596545942247	-0.0562596545942247	-0.0562596545942247	-0.0562596545942247
-0.035049006094698	-0.035049006094698	-0.035049006094698	-0.035049006094698	-0.035049006094698	-0.035049006094698
-0.020219435218592	-0.020219435218592	-0.020219435218592	-0.020219435218592	-0.020219435218592	-0.020219435218592
-0.0104208630576456	-0.0104208630576456	-0.0104208630576456	-0.0104208630576456	-0.0104208630576456	-0.0104208630576456
-0.00420926931924043	-0.00420926931924043	-0.00420926931924043	-0.00420926931924043	-0.00420926931924043	-0.00420926931924043
-4.66923264016983e-05	-4.66923264016983e-05	-4.66923264016983e-05	-4.66923264016983e-05	-4.66923264016983e-05	-4.66923264016983e-05
0.00331252392661296	0.00331252392661296	0.00331252392661296	0.00331252392661296	0.00331252392661296	0.00331252392661296
0.00626206677174312	0.00626206677174312	0.00626206677174312	0.00626206677174312	0.00626206677174312	0.00626206677174312
0.00910390057797017	0.00910390057797017	0.00910390057797017	0.00910390057797017	0.00910390057797017	0.00910390057797017
0.0120700186168869	0.0120700186168869	0.0120700186168869	0.0120700186168869	0.0120700186168869	0.0120700186168869
0.0153223501612756	0.0153223501612756	0.0153223501612756	0.0153223501612756	0.0153223501612756	0.0153223501612756
0.0189527604851081	0.0189527604851081	0.0189527604851081	0.0189527604851081	0.0189527604851081	0.0189527604851081
0.0229830508635458	0.0229830508635458	0.0229830508635458	0.0229830508635458	0.0229830508635458	0.0229830508635458
0.0274255897290842	0.0274255897290842	0.0274255897290842	0.0274255897290842	0.0274255897290842	0.0274255897290842
0.0323468519930938	0.0323468519930938	0.0323468519930938	0.0323468519930938	0.0323468519930938	0.0323468519930938
0.0377933007156626	0.0377933007156626	0.0377933007156626	0.0377933007156626	0.0377933007156626	0.0377933007156626
0.0438087698876558	0.0438087698876558	0.0438087698876558	0.0438087698876558	0.0438087698876558	0.0438087698876558
0.0504344674740924	0.0504344674740924	0.0504344674740924	0.0504344674740924	0.0504344674740924	0.0504344674740924
0.0577089754141458	0.0577089754141458	0.0577089754141458	0.0577089754141458	0.0577089754141458	0.0577089754141458
0.0656682496211439	0.0656682496211439	0.0656682496211439	0.0656682496211439	0.0656682496211439	0.0656682496211439
0.0743456199825686	0.0743456199825686	0.0743456199825686	0.0743456199825686	0.0743456199825686	0.0743456199825686
0.0837717903600551	0.0837717903600551	0.0837717903600551	0.0837717903600551	0.0837717903600551	0.0837717903600551
0.0939741644485514	0.0939741644485514	0.0939741644485514	0.0939741644485514	0.0939741644485514	0.0939741644485514
0.10496124926421	0.10496124926421	0.10496124926421	0.10496124926421	0.10496124926421	0.10496124926421
0.116744523366968	0.116744523366968	0.116744523366968	0.116744523366968	0.116744523366968	0.116744523366968
0.129330293873463	0.129330293873463	0.129330293873463	0.129330293873463	0.129330293873463	0.129330293873463
0.142711679846136	0.142711679846136	0.142711679846136	0.142711679846136	0.142711679846136	0.142711679846136
0.156868612293229	0.156868612293229	0.156868612293229	0.156868612293229	0.156868612293229	0.156868612293229
0.171767834168792	0.171767834168792	0.171767834168792	0.171767834168792	0.171767834168792	0.171767834168792
0.187362900372676	0.187362900372676	0.187362900372676	0.187362900372676	0.187362900372676	0.187362900372676
0.203594177750537	0.203594177750537	0.203594177750537	0.203594177750537	0.203594177750537	0.203594177750537
0.220388845093836	0.220388845093836	0.220388845093836	0.220388845093836	0.220388845093836	0.220388845093836
0.237660893139836	0.237660893139836	0.237660893139836	0.237660893139836	0.237660893139836	0.237660893139836
0.255311124571603	0.255311124571603	0.255311124571603	0.255311124571603	0.255311124571603	0.255311124571603
0.27322715401801	0.27322715401801	0.27322715401801	0.27322715401801	0.27322715401801	0.27322715401801
0.291283408053731	0.291283408053731	0.291283408053731	0.291283408053731	0.291283408053731	0.291283408053731
0.309341125199247	0.309341125199247	0.309341125199247	0.309341125199247	0.309341125199247	0.309341125199247
0.327248355920838	0.327248355920838	0.327248355920838	0.327248355920838	0.327248355920838	0.327248355920838
0.344866570352702	0.344866570352702	0.344866570352702	0.344866570352702	0.344866570352702	0.344866570352702
0.362085418163869	0.362085418163869	0.362085418163869	0.362085418163869	0.362085418163869	0.362085418163869
0.378702365943905	0.378702365943905	0.378702365943905	0.378702365943905	0.378702365943905	0.378702365943905
0.394523497489341	0.394523497489341	0.394523497489341	0.394523497489341	0.394523497489341	0.394523497489341
0.409370628845844	0.409370628845844	0.409370628845844	0.409370628845844	0.409370628845844	0.409370628845844
0.423081308308224	0.423081308308224	0.423081308308224	0.423081308308224	0.423081308308224	0.423081308308224
0.435508816420432	0.435508816420432	0.435508816420432	0.435508816420432	0.435508816420432	0.435508816420432
0.446522165975562	0.446522165975562	0.446522165975562	0.446522165975562	0.446522165975562	0.446522165975562
0.456006102015846	0.456006102015846	0.456006102015846	0.456006102015846	0.456006102015846	0.456006102015846
0.46386110183266	0.46386110183266	0.46386110183266	0.46386110183266	0.46386110183266	0.46386110183266
0.47000337496652	0.47000337496652	0.47000337496652	0.47000337496652	0.47000337496652	0.47000337496652
0.474364863207081	0.474364863207081	0.474364863207081	0.474364863207081	0.474364863207081	0.474364863207081
0.476893240593144	0.476893240593144	0.476893240593144	0.476893240593144	0.476893240593144	0.476893240593144
0.477551913412647	0.477551913412647	0.477551913412647	0.477551913412647	0.477551913412647	0.477551913412647
0.476320020202672	0.476320020202672	0.476320020202672	0.476320020202672	0.476320020202672	0.476320020202672
0.473192431749439	0.473192431749439	0.473192431749439	0.473192431749439	0.473192431749439	0.473192431749439
0.468163449921097	0.468163449921097	0.468163449921097	0.468163449921097	0.468163449921097	0.468163449921097
0.46110419519645	0.46110419519645	0.46110419519645	0.46110419519645	0.46110419519645	0.46110419519645
0.452141107087875	0.452141107087875	0.452141107087875	0.452141107087875	0.452141107087875	0.452141107087875
0.441469415474351	0.441469415474351	0.441469415474351	0.441469415474351	0.441469415474351	0.441469415474351
0.429277932183293	0.429277932183293	0.429277932183293	0.429277932183293	0.429277932183293	0.429277932183293
0.415749050990558	0.415749050990558	0.415749050990558	0.415749050990558	0.415749050990558	0.415749050990558
0.401058747620439	0.401058747620439	0.401058747620439	0.401058747620439	0.401058747620439	0.401058747620439
0.385376579745669	0.385376579745669	0.385376579745669	0.385376579745669	0.385376579745669	0.385376579745669
0.368865686987418	0.368865686987418	0.368865686987418	0.368865686987418	0.368865686987418	0.368865686987418
0.351682790915298	0.351682790915298	0.351682790915298	0.351682790915298	0.351682790915298	0.351682790915298
0.333978195047357	0.333978195047357	0.333978195047357	0.333978195047357	0.333978195047357	0.333978195047357
0.315895784850083	0.315895784850083	0.315895784850083	0.315895784850083	0.315895784850083	0.315895784850083
0.297573027738402	0.297573027738402	0.297573027738402	0.297573027738402	0.297573027738402	0.297573027738402
0.279140973075679	0.279140973075679	0.279140973075679	0.279140973075679	0.279140973075679	0.279140973075679
0.260724252173719	0.260724252173719	0.260724252173719	0.260724252173719	0.260724252173719	0.260724252173719
0.242441078292763	0.242441078292763	0.242441078292763	0.242441078292763	0.242441078292763	0.242441078292763
0.224403246641494	0.224403246641494	0.224403246641494	0.224403246641494	0.224403246641494	0.224403246641494
0.206716134377031	0.206716134377031	0.206716134377031	0.206716134377031	0.206716134377031	0.206716134377031
0.189478700604934	0.189478700604934	0.189478700604934	0.189478700604934	0.189478700604934	0.189478700604934
0.172783486379199	0.172783486379199	0.172783486379199	0.172783486379199	0.172783486379199	0.172783486379199
0.156716614702263	0.156716614702263	0.156716614702263	0.156716614702263	0.156716614702263	0.156716614702263
0.141357790525002	0.141357790525002	0.141357790525002	0.141357790525002	0.141357790525002	0.141357790525002
0.126780300746729	0.126780300746729	0.126780300746729	0.126780300746729	0.126780300746729	0.126780300746729
0.113051014215197	0.113051014215197	0.113051014215197	0.113051014215197	0.113051014215197	0.113051014215197
0.100230381726597	0.100230381726597	0.100230381726597	0.100230381726597	0.100230381726597	0.100230381726597
0.0883705514221469	0.0883705514221469	0.0883705514221469	0.0883705514221469	0.0883705514221469	0.0883705514221469
0.0774577821576609	0.0774577821576609	0.0774577821576609	0.0774577821576609	0.0774577821576609	0.0774577821576609
0.0674485465877182	0.0674485465877182	0.0674485465877182	0.0674485465877182	0.0674485465877182	0.0674485465877182
0.0583077648587125	0.0583077648587125	0.0583077648587125	0.0583077648587125	0.0583077648587125	0.0583077648587125
0.0499995706548638	0.0499995706548638	0.0499995706548638	0.0499995706548638	0.0499995706548638	0.0499995706548638
0.0424873111982184	0.0424873111982184	0.0424873111982184	0.0424873111982184	0.0424873111982184	0.0424873111982184
0.0357335472486478	0.0357335472486478	0.0357335472486478	0.0357335472486478	0.0357335472486478	0.0357335472486478
0.0297000531038504	0.0297000531038504	0.0297000531038504	0.0297000531038504	0.0297000531038504	0.0297000531038504
0.0243478165993506	0.0243478165993506	0.0243478165993506	0.0243478165993506	0.0243478165993506	0.0243478165993506
0.0196370391084986	0.0196370391084986	0.0196370391084986	0.0196370391084986	0.0196370391084986	0.0196370391084986
0.0155271355424708	0.0155271355424708	0.0155271355424708	0.0155271355424708	0.0155271355424708	0.0155271355424708
0.0119767343502696	0.0119767343502696	0.0119767343502696	0.0119767343502696	0.0119767343502696	0.0119767343502696
0.00894367751872355	0.00894367751872355	0.00894367751872355	0.00894367751872355	0.00894367751872355	0.00894367751872355
0.00638502057248735	0.00638502057248735	0.00638502057248735	0.00638502057248735	0.00638502057248735	0.00638502057248735
0.00425703257404147	0.00425703257404147	0.00425703257404147	0.00425703257404147	0.00425703257404147	0.00425703257404147
0.00251519612369272	0.00251519612369272	0.00251519612369272	0.00251519612369272	0.00251519612369272	0.00251519612369272
0.00111420735957385	0.00111420735957385	0.00111420735957385	0.00111420735957385	0.00111420735957385	0.00111420735957385
7.97595764362447e-06	7.97595764362447e-06	7.97595764362447e-06	7.97595764362447e-06	7.97595764362447e-06	7.97595764362447e-06
-0.000850374868312742	-0.000850374868312742	-0.000850374868312742	-0.000850374868312742	-0.000850374868312742	-0.000850374868312742
-0.00150232099731584	-0.00150232099731584	-0.00150232099731584	-0.00150232099731584	-0.00150232099731584	-0.00150232099731584
-0.00196856530390016	-0.00196856530390016	-0.00196856530390016	-0.00196856530390016	-0.00196856530390016	-0.00196856530390016
-0.00226507845202778	-0.00226507845202778	-0.00226507845202778	-0.00226507845202778	-0.00226507845202778	-0.00226507845202778
-0.00240736408749853	-0.00240736408749853	-0.00240736408749853	-0.00240736408749853	-0.00240736408749853	-0.00240736408749853
-0.00241045883218088	-0.00241045883218088	-0.00241045883218088	-0.00241045883218088	-0.00241045883218088	-0.00241045883218088
-0.00228893228401145	-0.00228893228401145	-0.00228893228401145	-0.00228893228401145	-0.00228893228401145	-0.00228893228401145
-0.00205688701699525	-0.00205688701699525	-0.00205688701699525	-0.00205688701699525	-0.00205688701699525	-0.00205688701699525
-0.00172795858120584	-0.00172795858120584	-0.00172795858120584	-0.00172795858120584	-0.00172795858120584	-0.00172795858120584
-0.00131531550278485	-0.00131531550278485	-0.00131531550278485	-0.00131531550278485	-0.00131531550278485	-0.00131531550278485
-0.000831659283942632	-0.000831659283942632	-0.000831659283942632	-0.000831659283942632	-0.000831659283942632	-0.000831659283942632
-0.000289224402957755	-0.000289224402957755	-0.000289224402957755	-0.000289224402957755	-0.000289224402957755	-0.000289224402957755
0.000300221685822777	0.000300221685822777	0.000300221685822777	0.000300221685822777	0.000300221685822777	0.000300221685822777
0.000925378551983713	0.000925378551983713	0.000925378551983713	0.000925378551983713	0.000925378551983713	0.000925378551983713
0.00157541278904128	0.00157541278904128	0.00157541278904128	0.00157541278904128	0.00157541278904128	0.00157541278904128
0.00223995801444338	0.00223995801444338	0.00223995801444338	0.00223995801444338	0.00223995801444338	0.00223995801444338
0.00290911486956941	0.00290911486956941	0.00290911486956941	0.00290911486956941	0.00290911486956941	0.00290911486956941
0.00357345101973056	0.00357345101973056	0.00357345101973056	0.00357345101973056	0.00357345101973056	0.00357345101973056
0.00422400115416965	0.00422400115416965	0.00422400115416965	0.00422400115416965	0.00422400115416965	0.00422400115416965
0.00485825172013377	0.00485825172013377	0.00485825172013377	0.00485825172013377	0.00485825172013377	0.00485825172013377
0.00548706859474446	0.00548706859474446	0.00548706859474446	0.00548706859474446	0.00548706859474446	0.00548706859474446
0.00611103512945027	0.00611103512945027	0.00611103512945027	0.00611103512945027	0.00611103512945027	0.00611103512945027
0.00673012024913877	0.00673012024913877	0.00673012024913877	0.00673012024913877	0.00673012024913877	0.00673012024913877
0.00734430017841647	0.00734430017841647	0.00734430017841647	0.00734430017841647	0.00734430017841647	0.00734430017841647
0.00795355844160811	0.00795355844160811	0.00795355844160811	0.00795355844160811	0.00795355844160811	0.00795355844160811
0.0085578858627573	0.0085578858627573	0.0085578858627573	0.0085578858627573	0.0085578858627573	0.0085578858627573
0.00915728056562604	0.00915728056562604	0.00915728056562604	0.00915728056562604	0.00915728056562604	0.00915728056562604
0.00975174797369499	0.00975174797369499	0.00975174797369499	0.00975174797369499	0.00975174797369499	0.00975174797369499
0.0103413008101634	0.0103413008101634	0.0103413008101634	0.0103413008101634	0.0103413008101634	0.0103413008101634
0.0109259590979486	0.0109259590979486	0.0109259590979486	0.0109259590979486	0.0109259590979486	0.0109259590979486
0.0115057501596875	0.0115057501596875	0.0115057501596875	0.0115057501596875	0.0115057501596875	0.0115057501596875
0.0120807086177345	0.0120807086177345	0.0120807086177345	0.0120807086177345	0.0120807086177345	0.0120807086177345
0.0126508763941631	0.0126508763941631	0.0126508763941631	0.0126508763941631	0.0126508763941631	0.0126508763941631
0.0132163027107655	0.0132163027107655	0.0132163027107655	0.0132163027107655	0.0132163027107655	0.0132163027107655
0.0137770440890521	0.0137770440890521	0.0137770440890521	0.0137770440890521	0.0137770440890521	0.0137770440890521
0.0143331643502518	0.0143331643502518	0.0143331643502518	0.0143331643502518	0.0143331643502518	0.0143331643502518
0.0148847346153128	0.0148847346153128	0.0148847346153128	0.0148847346153128	0.0148847346153128	0.0148847346153128
0.0154318333049008	0.0154318333049008	0.0154318333049008	0.0154318333049008	0.0154318333049008	0.0154318333049008
0.0159745461394008	0.0159745461394008	0.0159745461394008	0.0159745461394008	0.0159745461394008	0.0159745461394008
0.0165129661389163	0.0165129661389163	0.0165129661389163	0.0165129661389163	0.0165129661389163	0.0165129661389163
0.0170476164835906	0.0170476164835906	0.0170476164835906	0.0170476164835906	0.0170476164835906	0.0170476164835906
0.0175801271513623	0.0175801271513623	0.0175801271513623	0.0175801271513623	0.0175801271513623	0.0175801271513623
0.0181095616915841	0.0181095616915841	0.0181095616915841	0.0181095616915841	0.0181095616915841	0.0181095616915841
0.0186357533123282	0.0186357533123282	0.0186357533123282	0.0186357533123282	0.0186357533123282	0.0186357533123282
0.019159772615549	0.019159772615549	0.019159772615549	0.019159772615549	0.019159772615549	0.019159772615549
0.0196839275970833	0.0196839275970833	0.0196839275970833	0.0196839275970833	0.0196839275970833	0.0196839275970833
0.0202117636466496	0.0202117636466496	0.0202117636466496	0.0202117636466496	0.0202117636466496	0.0202117636466496
0.0207480635478489	0.0207480635478489	0.0207480635478489	0.0207480635478489	0.0207480635478489	0.0207480635478489
0.021298847478164	0.021298847478164	0.021298847478164	0.021298847478164	0.021298847478164	0.021298847478164
0.0218713730089602	0.0218713730089602	0.0218713730089602	0.0218713730089602	0.0218713730089602	0.0218713730089602
0.0224741351054846	0.0224741351054846	0.0224741351054846	0.0224741351054846	0.0224741351054846	0.0224741351054846
0.0231189129501186	0.0231189129501186	0.0231189129501186	0.0231189129501186	0.0231189129501186	0.0231189129501186
0.0238266883010611	0.0238266883010611	0.0238266883010611	0.0238266883010611	0.0238266883010611	0.0238266883010611
0.0246139089836956	0.0246139089836956	0.0246139089836956	0.0246139089836956	0.0246139089836956	0.0246139089836956
0.0255046655509914	0.0255046655509914	0.0255046655509914	0.0255046655509914	0.0255046655509914	0.0255046655509914
0.026532441447338	0.026532441447338	0.026532441447338	0.026532441447338	0.026532441447338	0.026532441447338
0.027740113008546	0.027740113008546	0.027740113008546	0.027740113008546	0.027740113008546	0.027740113008546
0.0291799494618465	0.0291799494618465	0.0291799494618465	0.0291799494618465	0.0291799494618465	0.0291799494618465
0.030913612925891	0.030913612925891	0.030913612925891	0.030913612925891	0.030913612925891	0.030913612925891
0.0330121584107518	0.0330121584107518	0.0330121584107518	0.0330121584107518	0.0330121584107518	0.0330121584107518
0.035556033817922	0.035556033817922	0.035556033817922	0.035556033817922	0.035556033817922	0.035556033817922
0.0386350799403151	0.0386350799403151	0.0386350799403151	0.0386350799403151	0.0386350799403151	0.0386350799403151
0.0423280257406464	0.0423280257406464	0.0423280257406464	0.0423280257406464	0.0423280257406464	0.0423280257406464
0.0466834780081705	0.0466834780081705	0.0466834780081705	0.0466834780081705	0.0466834780081705	0.0466834780081705
0.0518804720755384	0.0518804720755384	0.0518804720755384	0.0518804720755384	0.0518804720755384	0.0518804720755384
0.0580812583096456	0.0580812583096456	0.0580812583096456	0.0580812583096456	0.0580812583096456	0.0580812583096456
0.0654135565768194	0.0654135565768194	0.0654135565768194	0.0654135565768194	0.0654135565768194	0.0654135565768194
0.0739705562428195	0.0739705562428195	0.0739705562428195	0.0739705562428195	0.0739705562428195	0.0739705562428195
0.0838109161728381	0.0838109161728381	0.0838109161728381	0.0838109161728381	0.0838109161728381	0.0838109161728381
0.0949587647314997	0.0949587647314997	0.0949587647314997	0.0949587647314997	0.0949587647314997	0.0949587647314997
0.107403699782861	0.107403699782861	0.107403699782861	0.107403699782861	0.107403699782861	0.107403699782861
0.12110078869041	0.12110078869041	0.12110078869041	0.12110078869041	0.12110078869041	0.12110078869041
0.135970568317069	0.135970568317069	0.135970568317069	0.135970568317069	0.135970568317069	0.135970568317069
0.15189904502519	0.15189904502519	0.15189904502519	0.15189904502519	0.15189904502519	0.15189904502519
0.168737694676561	0.168737694676561	0.168737694676561	0.168737694676561	0.168737694676561	0.168737694676561
0.186308522501313	0.186308522501313	0.186308522501313	0.186308522501313	0.186308522501313	0.186308522501313
0.204511100372058	0.204511100372058	0.204511100372058	0.204511100372058	0.204511100372058	0.204511100372058
0.222904520190741	0.222904520190741	0.222904520190741	0.222904520190741	0.222904520190741	0.222904520190741
0.240947037098484	0.240947037098484	0.240947037098484	0.240947037098484	0.240947037098484	0.240947037098484
0.258147683946349	0.258147683946349	0.258147683946349	0.258147683946349	0.258147683946349	0.258147683946349
0.274066271295341	0.274066271295341	0.274066271295341	0.274066271295341	0.274066271295341	0.274066271295341
0.288313387416408	0.288313387416408	0.288313387416408	0.288313387416408	0.288313387416408	0.288313387416408
0.300550398290437	0.300550398290437	0.300550398290437	0.300550398290437	0.300550398290437	0.300550398290437
0.310489447608259	0.310489447608259	0.310489447608259	0.310489447608259	0.310489447608259	0.310489447608259
0.317893456770647	0.317893456770647	0.317893456770647	0.317893456770647	0.317893456770647	0.317893456770647
0.322576124888314	0.322576124888314	0.322576124888314	0.322576124888314	0.322576124888314	0.322576124888314
0.324401928781916	0.324401928781916	0.324401928781916	0.324401928781916	0.324401928781916	0.324401928781916
0.323286122982052	0.323286122982052	0.323286122982052	0.323286122982052	0.323286122982052	0.323286122982052
0.319194739729262	0.319194739729262	0.319194739729262	0.319194739729262	0.319194739729262	0.319194739729262
0.312144588974026	0.312144588974026	0.312144588974026	0.312144588974026	0.312144588974026	0.312144588974026
0.302090866345986	0.302090866345986	0.302090866345986	0.302090866345986	0.302090866345986	0.302090866345986
0.28929546833801	0.28929546833801	0.28929546833801	0.28929546833801	0.28929546833801	0.28929546833801
0.274334766233107	0.274334766233107	0.274334766233107	0.274334766233107	0.274334766233107	0.274334766233107
0.257742902942584	0.257742902942584	0.257742902942584	0.257742902942584	0.257742902942584	0.257742902942584
0.240010538745451	0.240010538745451	0.240010538745451	0.240010538745451	0.240010538745451	0.240010538745451
0.221584851288423	0.221584851288423	0.221584851288423	0.221584851288423	0.221584851288423	0.221584851288423
0.202869535585918	0.202869535585918	0.202869535585918	0.202869535585918	0.202869535585918	0.202869535585918
0.184224804020056	0.184224804020056	0.184224804020056	0.184224804020056	0.184224804020056	0.184224804020056
0.165967386340662	0.165967386340662	0.165967386340662	0.165967386340662	0.165967386340662	0.165967386340662
0.148370529665264	0.148370529665264	0.148370529665264	0.148370529665264	0.148370529665264	0.148370529665264
0.131663998479092	0.131663998479092	0.131663998479092	0.131663998479092	0.131663998479092	0.131663998479092
0.116034074635081	0.116034074635081	0.116034074635081	0.116034074635081	0.116034074635081	0.116034074635081
0.101623557353869	0.101623557353869	0.101623557353869	0.101623557353869	0.101623557353869	0.101623557353869
0.088531763223797	0.088531763223797	0.088531763223797	0.088531763223797	0.088531763223797	0.088531763223797
0.0768145262009094	0.0768145262009094	0.0768145262009094	0.0768145262009094	0.0768145262009094	0.0768145262009094
0.0664841976089544	0.0664841976089544	0.0664841976089544	0.0664841976089544	0.0664841976089544	0.0664841976089544
0.0575096461393835	0.0575096461393835	0.0575096461393835	0.0575096461393835	0.0575096461393835	0.0575096461393835
0.0498162578513509	0.0498162578513509	0.0498162578513509	0.0498162578513509	0.0498162578513509	0.0498162578513509
0.0432859361717151	0.0432859361717151	0.0432859361717151	0.0432859361717151	0.0432859361717151	0.0432859361717151
0.0377544338231521	0.0377544338231521	0.0377544338231521	0.0377544338231521	0.0377544338231521	0.0377544338231521
0.0330430015092559	0.0330430015092559	0.0330430015092559	0.0330430015092559	0.0330430015092559	0.0330430015092559
0.0290136980205767	0.0290136980205767	0.0290136980205767	0.0290136980205767	0.0290136980205767	0.0290136980205767
0.0253552562239272	0.0253552562239272	0.0253552562239272	0.0253552562239272	0.0253552562239272	0.0253552562239272
0.0215497738080428	0.0215497738080428	0.0215497738080428	0.0215497738080428	0.0215497738080428	0.0215497738080428
0.0168727132835811	0.0168727132835811	0.0168727132835811	0.0168727132835811	0.0168727132835811	0.0168727132835811
0.0103929019831228	0.0103929019831228	0.0103929019831228	0.0103929019831228	0.0103929019831228	0.0103929019831228
0.000972532061169651	0.000972532061169651	0.000972532061169651	0.000972532061169651	0.000972532061169651	0.000972532061169651
-0.0126392644424474	-0.0126392644424474	-0.0126392644424474	-0.0126392644424474	-0.0126392644424474	-0.0126392644424474
-0.0312596928152338	-0.0312596928152338	-0.0312596928152338	-0.0312596928152338	-0.0312596928152338	-0.0312596928152338
-0.0550805147587732	-0.0550805147587732	-0.0550805147587732	-0.0550805147587732	-0.0550805147587732	-0.0550805147587732
-0.0827728453615745	-0.0827728453615745	-0.0827728453615745	-0.0827728453615745	-0.0827728453615745	-0.0827728453615745
-0.111390813707813	-0.111390813707813	-0.111390813707813	-0.111390813707813	-0.111390813707813	-0.111390813707813
-0.136371562877329	-0.136371562877329	-0.136371562877329	-0.136371562877329	-0.136371562877329	-0.136371562877329
-0.151628425986739	-0.151628425986739	-0.151628425986739	-0.151628425986739	-0.151628425986739	-0.151628425986739
-0.150769258222693	-0.150769258222693	-0.150769258222693	-0.150769258222693	-0.150769258222693	-0.150769258222693
-0.12587671993868	-0.12587671993868	-0.12587671993868	-0.12587671993868	-0.12587671993868	-0.12587671993868
-0.0705886026723479	-0.0705886026723479	-0.0705886026723479	-0.0705886026723479	-0.0705886026723479	-0.0705886026723479
0.0190309090217862	0.0190309090217862	0.0190309090217862	0.0190309090217862	0.0190309090217862	0.0190309090217862
0.14449123757234	0.14449123757234	0.14449123757234	0.14449123757234	0.14449123757234	0.14449123757234
0.304878899314772	0.304878899314772	0.304878899314772	0.304878899314772	0.304878899314772	0.304878899314772
0.495708292316311	0.495708292316311	0.495708292316311	0.495708292316311	0.495708292316311	0.495708292316311
0.69926112348017	0.69926112348017	0.69926112348017	0.69926112348017	0.69926112348017	0.69926112348017
0.893424526883246	0.893424526883246	0.893424526883246	0.893424526883246	0.893424526883246	0.893424526883246
1.05612544543558	1.05612544543558	1.05612544543558	1.05612544543558	1.05612544543558	1.05612544543558
1.16533063088039	1.16533063088039	1.16533063088039	1.16533063088039	1.16533063088039	1.16533063088039
1.19931359470403	1.19931359470403	1.19931359470403	1.19931359470403	1.19931359470403	1.19931359470403
1.14944441021067	1.14944441021067	1.14944441021067	1.14944441021067	1.14944441021067	1.14944441021067
1.02756867171007	1.02756867171007	1.02756867171007	1.02756867171007	1.02756867171007	1.02756867171007
0.850617076765528	0.850617076765528	0.850617076765528	0.850617076765528	0.850617076765528	0.850617076765528
0.639289934057172	0.639289934057172	0.639289934057172	0.639289934057172	0.639289934057172	0.639289934057172
0.418057163382008	0.418057163382008	0.418057163382008	0.418057163382008	0.418057163382008	0.418057163382008
0.212503768907206	0.212503768907206	0.212503768907206	0.212503768907206	0.212503768907206	0.212503768907206
0.036258405137726	0.036258405137726	0.036258405137726	0.036258405137726	0.036258405137726	0.036258405137726
-0.102894510485733	-0.102894510485733	-0.102894510485733	-0.102894510485733	-0.102894510485733	-0.102894510485733
-0.201143047690143	-0.201143047690143	-0.201143047690143	-0.201143047690143	-0.201143047690143	-0.201143047690143
-0.258770356490182	-0.258770356490182	-0.258770356490182	-0.258770356490182	-0.258770356490182	-0.258770356490182
-0.280146891177508	-0.280146891177508	-0.280146891177508	-0.280146891177508	-0.280146891177508	-0.280146891177508
-0.271704454641773	-0.271704454641773	-0.271704454641773	-0.271704454641773	-0.271704454641773	-0.271704454641773
-0.242359032483451	-0.242359032483451	-0.242359032483451	-0.242359032483451	-0.242359032483451	-0.242359032483451
-0.20136421637299	-0.20136421637299	-0.20136421637299	-0.20136421637299	-0.20136421637299	-0.20136421637299
-0.156310337415089	-0.156310337415089	-0.156310337415089	-0.156310337415089	-0.156310337415089	-0.156310337415089
-0.113124466148697	-0.113124466148697	-0.113124466148697	-0.113124466148697	-0.113124466148697	-0.113124466148697
-0.0760704125470126	-0.0760704125470126	-0.0760704125470126	-0.0760704125470126	-0.0760704125470126	-0.0760704125470126
-0.0476457692727452	-0.0476457692727452	-0.0476457692727452	-0.0476457692727452	-0.0476457692727452	-0.0476457692727452
-0.0273775182605812	-0.0273775182605812	-0.0273775182605812	-0.0273775182605812	-0.0273775182605812	-0.0273775182605812
-0.0134665618004511	-0.0134665618004511	-0.0134665618004511	-0.0134665618004511	-0.0134665618004511	-0.0134665618004511
-0.00429493849011181	-0.00429493849011181	-0.00429493849011181	-0.00429493849011181	-0.00429493849011181	-0.00429493849011181
0.00155306210089473	0.00155306210089473	0.00155306210089473	0.00155306210089473	0.00155306210089473	0.00155306210089473
0.00529089943124134	0.00529089943124134	0.00529089943124134	0.00529089943124134	0.00529089943124134	0.00529089943124134
0.00792978198781563	0.00792978198781563	0.00792978198781563	0.00792978198781563	0.00792978198781563	0.00792978198781563
0.0102476135467791	0.0102476135467791	0.0102476135467791	0.0102476135467791	0.0102476135467791	0.0102476135467791
0.0125600250730925	0.0125600250730925	0.0125600250730925	0.0125600250730925	0.0125600250730925	0.0125600250730925
0.0149941175636846	0.0149941175636846	0.0149941175636846	0.0149941175636846	0.0149941175636846	0.0149941175636846
0.0176607667568571	0.0176607667568571	0.0176607667568571	0.0176607667568571	0.0176607667568571	0.0176607667568571
0.0206526176325139	0.0206526176325139	0.0206526176325139	0.0206526176325139	0.0206526176325139	0.0206526176325139
0.0240440844121606	0.0240440844121606	0.0240440844121606	0.0240440844121606	0.0240440844121606	0.0240440844121606
0.027891350558905	0.027891350558905	0.027891350558905	0.027891350558905	0.027891350558905	0.027891350558905
0.0322323687774568	0.0322323687774568	0.0322323687774568	0.0322323687774568	0.0322323687774568	0.0322323687774568
0.0370878172325048	0.0370878172325048	0.0370878172325048	0.0370878172325048	0.0370878172325048	0.0370878172325048
0.0424918986970577	0.0424918986970577	0.0424918986970577	0.0424918986970577	0.0424918986970577	0.0424918986970577
0.0485004802925397	0.0485004802925397	0.0485004802925397	0.0485004802925397	0.0485004802925397	0.0485004802925397
0.0551630538359476	0.0551630538359476	0.0551630538359476	0.0551630538359476	0.0551630538359476	0.0551630538359476
0.0625217602953324	0.0625217602953324	0.0625217602953324	0.0625217602953324	0.0625217602953324	0.0625217602953324
0.0706113897897989	0.0706113897897989	0.0706113897897989	0.0706113897897989	0.0706113897897989	0.0706113897897989
0.0794593815895064	0.0794593815895064	0.0794593815895064	0.0794593815895064	0.0794593815895064	0.0794593815895064
0.0890858241156679	0.0890858241156679	0.0890858241156679	0.0890858241156679	0.0890858241156679	0.0890858241156679
0.0995034549405508	0.0995034549405508	0.0995034549405508	0.0995034549405508	0.0995034549405508	0.0995034549405508
0.110717660787477	0.110717660787477	0.110717660787477	0.110717660787477	0.110717660787477	0.110717660787477
0.122726477530821	0.122726477530821	0.122726477530821	0.122726477530821	0.122726477530821	0.122726477530821
0.135520590196013	0.135520590196013	0.135520590196013	0.135520590196013	0.135520590196013	0.135520590196013
0.149083332959537	0.149083332959537	0.149083332959537	0.149083332959537	0.149083332959537	0.149083332959537
0.163395862505985	0.163395862505985	0.163395862505985	0.163395862505985	0.163395862505985	0.163395862505985
0.178480307355251	0.178480307355251	0.178480307355251	0.178480307355251	0.178480307355251	0.178480307355251
0.194252599603071	0.194252599603071	0.194252599603071	0.194252599603071	0.194252599603071	0.194252599603071
0.210594591683817	0.210594591683817	0.210594591683817	0.210594591683817	0.210594591683817	0.210594591683817
0.227385763555302	0.227385763555302	0.227385763555302	0.227385763555302	0.227385763555302	0.227385763555302
0.244503222698781	0.244503222698781	0.244503222698781	0.244503222698781	0.244503222698781	0.244503222698781
0.261821704118945	0.261821704118945	0.261821704118945	0.261821704118945	0.261821704118945	0.261821704118945
0.279213570343929	0.279213570343929	0.279213570343929	0.279213570343929	0.279213570343929	0.279213570343929
0.296548811425308	0.296548811425308	0.296548811425308	0.296548811425308	0.296548811425308	0.296548811425308
0.313695044938095	0.313695044938095	0.313695044938095	0.313695044938095	0.313695044938095	0.313695044938095
0.330517515980745	0.330517515980745	0.330517515980745	0.330517515980745	0.330517515980745	0.330517515980745
0.346879097175152	0.346879097175152	0.346879097175152	0.346879097175152	0.346879097175152	0.346879097175152
0.362640288666653	0.362640288666653	0.362640288666653	0.362640288666653	0.362640288666653	0.362640288666653
0.377659218124023	0.377659218124023	0.377659218124023	0.377659218124023	0.377659218124023	0.377659218124023
0.391791640739477	0.391791640739477	0.391791640739477	0.391791640739477	0.391791640739477	0.391791640739477
0.404890939228671	0.404890939228671	0.404890939228671	0.404890939228671	0.404890939228671	0.404890939228671
0.416808123830701	0.416808123830701	0.416808123830701	0.416808123830701	0.416808123830701	0.416808123830701
0.427391832308105	0.427391832308105	0.427391832308105	0.427391832308105	0.427391832308105	0.427391832308105
0.436488329946858	0.436488329946858	0.436488329946858	0.436488329946858	0.436488329946858	0.436488329946858
0.443941509556379	0.443941509556379	0.443941509556379	0.443941509556379	0.443941509556379	0.443941509556379
0.449594669659011	0.449594669659011	0.449594669659011	0.449594669659011	0.449594669659011	0.449594669659011
0.453371260840046	0.453371260840046	0.453371260840046	0.453371260840046	0.453371260840046	0.453371260840046
0.455261011598087	0.455261011598087	0.455261011598087	0.455261011598087	0.455261011598087	0.455261011598087
0.455258073603265	0.455258073603265	0.455258073603265	0.455258073603265	0.455258073603265	0.455258073603265
0.453370950641817	0.453370950641817	0.453370950641817	0.453370950641817	0.453370950641817	0.453370950641817
0.449622498616082	0.449622498616082	0.449622498616082	0.449622498616082	0.449622498616082	0.449622498616082
0.444049925544505	0.444049925544505	0.444049925544505	0.444049925544505	0.444049925544505	0.444049925544505
0.436704791561635	0.436704791561635	0.436704791561635	0.436704791561635	0.436704791561635	0.436704791561635
0.427653008918123	0.427653008918123	0.427653008918123	0.427653008918123	0.427653008918123	0.427653008918123
0.416974841980728	0.416974841980728	0.416974841980728	0.416974841980728	0.416974841980728	0.416974841980728
0.404764907232311	0.404764907232311	0.404764907232311	0.404764907232311	0.404764907232311	0.404764907232311
0.391132173271838	0.391132173271838	0.391132173271838	0.391132173271838	0.391132173271838	0.391132173271838
0.376199960814377	0.376199960814377	0.376199960814377	0.376199960814377	0.376199960814377	0.376199960814377
0.360105942691102	0.360105942691102	0.360105942691102	0.360105942691102	0.360105942691102	0.360105942691102
0.343002143849293	0.343002143849293	0.343002143849293	0.343002143849293	0.343002143849293	0.343002143849293
0.325054941352331	0.325054941352331	0.325054941352331	0.325054941352331	0.325054941352331	0.325054941352331
0.306445064379703	0.306445064379703	0.306445064379703	0.306445064379703	0.306445064379703	0.306445064379703
0.287367594227001	0.287367594227001	0.287367594227001	0.287367594227001	0.287367594227001	0.287367594227001
0.268031964305919	0.268031964305919	0.268031964305919	0.268031964305919	0.268031964305919	0.268031964305919
0.248644198031915	0.248644198031915	0.248644198031915	0.248644198031915	0.248644198031915	0.248644198031915
0.229291368966655	0.229291368966655	0.229291368966655	0.229291368966655	0.229291368966655	0.229291368966655
0.210102368743816	0.210102368743816	0.210102368743816	0.210102368743816	0.210102368743816	0.210102368743816
0.191210855922988	0.191210855922988	0.191210855922988	0.191210855922988	0.191210855922988	0.191210855922988
0.172737285717697	0.172737285717697	0.172737285717697	0.172737285717697	0.172737285717697	0.172737285717697
0.154788909995409	0.154788909995409	0.154788909995409	0.154788909995409	0.154788909995409	0.154788909995409
0.137459777277529	0.137459777277529	0.137459777277529	0.137459777277529	0.137459777277529	0.137459777277529
0.120830732739402	0.120830732739402	0.120830732739402	0.120830732739402	0.120830732739402	0.120830732739402
0.10496941821031	0.10496941821031	0.10496941821031	0.10496941821031	0.10496941821031	0.10496941821031
0.0899302721734739	0.0899302721734739	0.0899302721734739	0.0899302721734739	0.0899302721734739	0.0899302721734739
0.0757545297660553	0.0757545297660553	0.0757545297660553	0.0757545297660553	0.0757545297660553	0.0757545297660553
0.0624702227791529	0.0624702227791529	0.0624702227791529	0.0624702227791529	0.0624702227791529	0.0624702227791529
0.0500921796578053	0.0500921796578053	0.0500921796578053	0.0500921796578053	0.0500921796578053	0.0500921796578053
0.0386220255009893	0.0386220255009893	0.0386220255009893	0.0386220255009893	0.0386220255009893	0.0386220255009893
0.028048182061621	0.028048182061621	0.028048182061621	0.028048182061621	0.028048182061621	0.028048182061621
0.0183458677465554	0.0183458677465554	0.0183458677465554	0.0183458677465554	0.0183458677465554	0.0183458677465554
0.00947709761658549	0.00947709761658549	0.00947709761658549	0.00947709761658549	0.00947709761658549	0.00947709761658549
0.00142087732481422	0.00142087732481422	0.00142087732481422	0.00142087732481422	0.00142087732481422	0.00142087732481422
-0.00584104180098244	-0.00584104180098244	-0.00584104180098244	-0.00584104180098244	-0.00584104180098244	-0.00584104180098244
-0.0123621868122967	-0.0123621868122967	-0.0123621868122967	-0.0123621868122967	-0.0123621868122967	-0.0123621868122967
-0.0181944030427015	-0.0181944030427015	-0.0181944030427015	-0.0181944030427015	-0.0181944030427015	-0.0181944030427015
-0.0233877385561547	-0.0233877385561547	-0.0233877385561547	-0.0233877385561547	-0.0233877385561547	-0.0233877385561547
-0.0279904441469986	-0.0279904441469986	-0.0279904441469986	-0.0279904441469986	-0.0279904441469986	-0.0279904441469986
-0.0320489733399605	-0.0320489733399605	-0.0320489733399605	-0.0320489733399605	-0.0320489733399605	-0.0320489733399605
-0.0356079823901527	-0.0356079823901527	-0.0356079823901527	-0.0356079823901527	-0.0356079823901527	-0.0356079823901527
-0.0387103302830718	-0.0387103302830718	-0.0387103302830718	-0.0387103302830718	-0.0387103302830718	-0.0387103302830718
-0.0413970787345997	-0.0413970787345997	-0.0413970787345997	-0.0413970787345997	-0.0413970787345997	-0.0413970787345997
-0.043707492191003	-0.043707492191003	-0.043707492191003	-0.043707492191003	-0.043707492191003	-0.043707492191003
-0.0456790378289328	-0.0456790378289328	-0.0456790378289328	-0.0456790378289328	-0.0456790378289328	-0.0456790378289328
-0.0473473855554252	-0.0473473855554252	-0.0473473855554252	-0.0473473855554252	-0.0473473855554252	-0.0473473855554252
-0.0487464080079013	-0.0487464080079013	-0.0487464080079013	-0.0487464080079013	-0.0487464080079013	-0.0487464080079013
-0.0499081805541666	-0.0499081805541666	-0.0499081805541666	-0.0499081805541666	-0.0499081805541666	-0.0499081805541666
-0.0508629812924117	-0.0508629812924117	-0.0508629812924117	-0.0508629812924117	-0.0508629812924117	-0.0508629812924117
-0.0516392910512119	-0.0516392910512119	-0.0516392910512119	-0.0516392910512119	-0.0516392910512119	-0.0516392910512119
-0.0522637933895272	-0.0522637933895272	-0.0522637933895272	-0.0522637933895272	-0.0522637933895272	-0.0522637933895272
-0.0527613745967028	-0.0527613745967028	-0.0527613745967028	-0.0527613745967028	-0.0527613745967028	-0.0527613745967028
-0.0531406226288463	-0.0531406226288463	-0.0531406226288463	-0.0531406226288463	-0.0531406226288463	-0.0531406226288463
-0.0533761252240997	-0.0533761252240997	-0.0533761252240997	-0.0533761252240997	-0.0533761252240997	-0.0533761252240997
-0.0534885346257175	-0.0534885346257175	-0.0534885346257175	-0.0534885346257175	-0.0534885346257175	-0.0534885346257175
-0.0535006698736018	-0.0535006698736018	-0.0535006698736018	-0.0535006698736018	-0.0535006698736018	-0.0535006698736018
-0.0534333628465178	-0.0534333628465178	-0.0534333628465178	-0.0534333628465178	-0.0534333628465178	-0.0534333628465178
-0.0533054582620942	-0.0533054582620942	-0.0533054582620942	-0.0533054582620942	-0.0533054582620942	-0.0533054582620942
-0.0531338136768235	-0.0531338136768235	-0.0531338136768235	-0.0531338136768235	-0.0531338136768235	-0.0531338136768235
-0.0529332994860614	-0.0529332994860614	-0.0529332994860614	-0.0529332994860614	-0.0529332994860614	-0.0529332994860614
-0.052716798924027	-0.052716798924027	-0.052716798924027	-0.052716798924027	-0.052716798924027	-0.052716798924027
-0.0524952080638033	-0.0524952080638033	-0.0524952080638033	-0.0524952080638033	-0.0524952080638033	-0.0524952080638033
-0.0522774358173363	-0.0522774358173363	-0.0522774358173363	-0.0522774358173363	-0.0522774358173363	-0.0522774358173363
-0.0520704039354357	-0.0520704039354357	-0.0520704039354357	-0.0520704039354357	-0.0520704039354357	-0.0520704039354357
-0.0518790470077748	-0.0518790470077748	-0.0518790470077748	-0.0518790470077748	-0.0518790470077748	-0.0518790470077748
-0.0517063124628901	-0.0517063124628901	-0.0517063124628901	-0.0517063124628901	-0.0517063124628901	-0.0517063124628901
-0.0515531605681819	-0.0515531605681819	-0.0515531605681819	-0.0515531605681819	-0.0515531605681819	-0.0515531605681819
-0.0514185644299136	-0.0514185644299136	-0.0514185644299136	-0.0514185644299136	-0.0514185644299136	-0.0514185644299136
-0.0512995099932125	-0.0512995099932125	-0.0512995099932125	-0.0512995099932125	-0.0512995099932125	-0.0512995099932125
-0.0511909960420691	-0.0511909960420691	-0.0511909960420691	-0.0511909960420691	-0.0511909960420691	-0.0511909960420691
-0.0510860341993373	-0.0510860341993373	-0.0510860341993373	-0.0510860341993373	-0.0510860341993373	-0.0510860341993373
-0.0509756489267349	-0.0509756489267349	-0.0509756489267349	-0.0509756489267349	-0.0509756489267349	-0.0509756489267349
-0.0508515602696866	-0.0508515602696866	-0.0508515602696866	-0.0508515602696866	-0.0508515602696866	-0.0508515602696866
-0.0507206208085687	-0.0507206208085687	-0.0507206208085687	-0.0507206208085687	-0.0507206208085687	-0.0507206208085687
-0.0505870247020491	-0.0505870247020491	-0.0505870247020491	-0.0505870247020491	-0.0505870247020491	-0.0505870247020491
-0.0504534273594591	-0.0504534273594591	-0.0504534273594591	-0.0504534273594591	-0.0504534273594591	-0.0504534273594591
-0.0503220986659541	-0.0503220986659541	-0.0503220986659541	-0.0503220986659541	-0.0503220986659541	-0.0503220986659541
-0.0501949229825137	-0.0501949229825137	-0.0501949229825137	-0.0501949229825137	-0.0501949229825137	-0.0501949229825137
-0.050073399145942	-0.050073399145942	-0.050073399145942	-0.050073399145942	-0.050073399145942	-0.050073399145942
-0.0499586404688672	-0.0499586404688672	-0.0499586404688672	-0.0499586404688672	-0.0499586404688672	-0.0499586404688672
-0.0498513747397419	-0.0498513747397419	-0.0498513747397419	-0.0498513747397419	-0.0498513747397419	-0.0498513747397419
-0.0497519442228428	-0.0497519442228428	-0.0497519442228428	-0.0497519442228428	-0.0497519442228428	-0.0497519442228428
-0.0496603056582711	-0.0496603056582711	-0.0496603056582711	-0.0496603056582711	-0.0496603056582711	-0.0496603056582711
-0.0495760302619521	-0.0495760302619521	-0.0495760302619521	-0.0495760302619521	-0.0495760302619521	-0.0495760302619521
-0.0494983037256353	-0.0494983037256353	-0.0494983037256353	-0.0494983037256353	-0.0494983037256353	-0.0494983037256353
-0.0494259262168948	-0.0494259262168948	-0.0494259262168948	-0.0494259262168948	-0.0494259262168948	-0.0494259262168948
-0.0493573123791288	-0.0493573123791288	-0.0493573123791288	-0.0493573123791288	-0.0493573123791288	-0.0493573123791288
-0.0492904913315595	-0.0492904913315595	-0.0492904913315595	-0.0492904913315595	-0.0492904913315595	-0.0492904913315595
-0.0492231066692341	-0.0492231066692341	-0.0492231066692341	-0.0492231066692341	-0.0492231066692341	-0.0492231066692341
-0.0491524164630232	-0.0491524164630232	-0.0491524164630232	-0.0491524164630232	-0.0491524164630232	-0.0491524164630232
-0.0490752932596223	-0.0490752932596223	-0.0490752932596223	-0.0490752932596223	-0.0490752932596223	-0.0490752932596223
-0.0489882240815509	-0.0489882240815509	-0.0489882240815509	-0.0489882240815509	-0.0489882240815509	-0.0489882240815509
-0.0488873104271528	-0.0488873104271528	-0.0488873104271528	-0.0488873104271528	-0.0488873104271528	-0.0488873104271528
-0.0487682682705963	-0.0487682682705963	-0.0487682682705963	-0.0487682682705963	-0.0487682682705963	-0.0487682682705963
-0.0486264280618736	-0.0486264280618736	-0.0486264280618736	-0.0486264280618736	-0.0486264280618736	-0.0486264280618736
-0.0484567347268015	-0.0484567347268015	-0.0484567347268015	-0.0484567347268015	-0.0484567347268015	-0.0484567347268015
-0.048253747667021	-0.048253747667021	-0.048253747667021	-0.048253747667021	-0.048253747667021	-0.048253747667021
-0.0480116407599971	-0.0480116407599971	-0.0480116407599971	-0.0480116407599971	-0.0480116407599971	-0.0480116407599971
-0.0477145705851686	-0.0477145705851686	-0.0477145705851686	-0.0477145705851686	-0.0477145705851686	-0.0477145705851686
-0.0473315993773816	-0.0473315993773816	-0.0473315993773816	-0.0473315993773816	-0.0473315993773816	-0.0473315993773816
-0.0468390679611216	-0.0468390679611216	-0.0468390679611216	-0.0468390679611216	-0.0468390679611216	-0.0468390679611216
-0.0462043916830288	-0.0462043916830288	-0.0462043916830288	-0.0462043916830288	-0.0462043916830288	-0.0462043916830288
-0.0453856179403389	-0.0453856179403389	-0.0453856179403389	-0.0453856179403389	-0.0453856179403389	-0.0453856179403389
-0.0443314261808833	-0.0443314261808833	-0.0443314261808833	-0.0443314261808833	-0.0443314261808833	-0.0443314261808833
-0.0429811279030892	-0.0429811279030892	-0.0429811279030892	-0.0429811279030892	-0.0429811279030892	-0.0429811279030892
-0.0412646666559792	-0.0412646666559792	-0.0412646666559792	-0.0412646666559792	-0.0412646666559792	-0.0412646666559792
-0.0391026180391718	-0.0391026180391718	-0.0391026180391718	-0.0391026180391718	-0.0391026180391718	-0.0391026180391718
-0.0364061897028811	-0.0364061897028811	-0.0364061897028811	-0.0364061897028811	-0.0364061897028811	-0.0364061897028811
-0.0330772213479166	-0.0330772213479166	-0.0330772213479166	-0.0330772213479166	-0.0330772213479166	-0.0330772213479166
-0.0290081847256839	-0.0290081847256839	-0.0290081847256839	-0.0290081847256839	-0.0290081847256839	-0.0290081847256839
-0.0240821836381839	-0.0240821836381839	-0.0240821836381839	-0.0240821836381839	-0.0240821836381839	-0.0240821836381839
-0.0182124218270495	-0.0182124218270495	-0.0182124218270495	-0.0182124218270495	-0.0182124218270495	-0.0182124218270495
-0.0113221677253282	-0.0113221677253282	-0.0113221677253282	-0.0113221677253282	-0.0113221677253282	-0.0113221677253282
-0.00325940258543078	-0.00325940258543078	-0.00325940258543078	-0.00325940258543078	-0.00325940258543078	-0.00325940258543078
0.00608312019082502	0.00608312019082502	0.00608312019082502	0.00608312019082502	0.00608312019082502	0.00608312019082502
0.0167645240465538	0.0167645240465538	0.0167645240465538	0.0167645240465538	0.0167645240465538	0.0167645240465538
0.0287958092698031	0.0287958092698031	0.0287958092698031	0.0287958092698031	0.0287958092698031	0.0287958092698031
0.0421398529935533	0.0421398529935533	0.0421398529935533	0.0421398529935533	0.0421398529935533	0.0421398529935533
0.056711409195718	0.056711409195718	0.056711409195718	0.056711409195718	0.056711409195718	0.056711409195718
0.072377108699143	0.072377108699143	0.072377108699143	0.072377108699143	0.072377108699143	0.072377108699143
0.0889554591716074	0.0889554591716074	0.0889554591716074	0.0889554591716074	0.0889554591716074	0.0889554591716074
0.106216845125823	0.106216845125823	0.106216845125823	0.106216845125823	0.106216845125823	0.106216845125823
0.123883527919434	0.123883527919434	0.123883527919434	0.123883527919434	0.123883527919434	0.123883527919434
0.141629645755019	0.141629645755019	0.141629645755019	0.141629645755019	0.141629645755019	0.141629645755019
0.159132697293101	0.159132697293101	0.159132697293101	0.159132697293101	0.159132697293101	0.159132697293101
0.176022716332373	0.176022716332373	0.176022716332373	0.176022716332373	0.176022716332373	0.176022716332373
0.191775454745174	0.191775454745174	0.191775454745174	0.191775454745174	0.191775454745174	0.191775454745174
0.205926331019261	0.205926331019261	0.205926331019261	0.205926331019261	0.205926331019261	0.205926331019261
0.218077284452996	0.218077284452996	0.218077284452996	0.218077284452996	0.218077284452996	0.218077284452996
0.227896775155355	0.227896775155355	0.227896775155355	0.227896775155355	0.227896775155355	0.227896775155355
0.23511978404592	0.23511978404592	0.23511978404592	0.23511978404592	0.23511978404592	0.23511978404592
0.239547812854885	0.239547812854885	0.239547812854885	0.239547812854885	0.239547812854885	0.239547812854885
0.241048884123051	0.241048884123051	0.241048884123051	0.241048884123051	0.241048884123051	0.241048884123051
0.239557541201831	0.239557541201831	0.239557541201831	0.239557541201831	0.239557541201831	0.239557541201831
0.235074848253244	0.235074848253244	0.235074848253244	0.235074848253244	0.235074848253244	0.235074848253244
0.227668159135594	0.227668159135594	0.227668159135594	0.227668159135594	0.227668159135594	0.227668159135594
0.217382020386789	0.217382020386789	0.217382020386789	0.217382020386789	0.217382020386789	0.217382020386789
0.204548098428689	0.204548098428689	0.204548098428689	0.204548098428689	0.204548098428689	0.204548098428689
0.189659140255253	0.189659140255253	0.189659140255253	0.189659140255253	0.189659140255253	0.189659140255253
0.173177954739746	0.173177954739746	0.173177954739746	0.173177954739746	0.173177954739746	0.173177954739746
0.155537412634734	0.155537412634734	0.155537412634734	0.155537412634734	0.155537412634734	0.155537412634734
0.137140446572091	0.137140446572091	0.137140446572091	0.137140446572091	0.137140446572091	0.137140446572091
0.118360051062992	0.118360051062992	0.118360051062992	0.118360051062992	0.118360051062992	0.118360051062992
0.0995392824979178	0.0995392824979178	0.0995392824979178	0.0995392824979178	0.0995392824979178	0.0995392824979178
0.0809912591466552	0.0809912591466552	0.0809912591466552	0.0809912591466552	0.0809912591466552	0.0809912591466552
0.0629991611582931	0.0629991611582931	0.0629991611582931	0.0629991611582931	0.0629991611582931	0.0629991611582931
0.0458162305612257	0.0458162305612257	0.0458162305612257	0.0458162305612257	0.0458162305612257	0.0458162305612257
0.0296657712631516	0.0296657712631516	0.0296657712631516	0.0296657712631516	0.0296657712631516	0.0296657712631516
0.0147411490510735	0.0147411490510735	0.0147411490510735	0.0147411490510735	0.0147411490510735	0.0147411490510735
0.00120579159129941	0.00120579159129941	0.00120579159129941	0.00120579159129941	0.00120579159129941	0.00120579159129941
-0.0109149226563622	-0.0109149226563622	-0.0109149226563622	-0.0109149226563622	-0.0109149226563622	-0.0109149226563622
-0.0216917618352613	-0.0216917618352613	-0.0216917618352613	-0.0216917618352613	-0.0216917618352613	-0.0216917618352613
-0.0310689063804013	-0.0310689063804013	-0.0310689063804013	-0.0310689063804013	-0.0310689063804013	-0.0310689063804013
-0.0390620384121517	-0.0390620384121517	-0.0390620384121517	-0.0390620384121517	-0.0390620384121517	-0.0390620384121517
-0.045761485681416	-0.045761485681416	-0.045761485681416	-0.045761485681416	-0.045761485681416	-0.045761485681416
-0.0513322215696325	-0.0513322215696325	-0.0513322215696325	-0.0513322215696325	-0.0513322215696325	-0.0513322215696325
-0.0560138650887733	-0.0560138650887733	-0.0560138650887733	-0.0560138650887733	-0.0560138650887733	-0.0560138650887733
-0.060120680881345	-0.060120680881345	-0.060120680881345	-0.060120680881345	-0.060120680881345	-0.060120680881345
-0.0640415792203882	-0.0640415792203882	-0.0640415792203882	-0.0640415792203882	-0.0640415792203882	-0.0640415792203882
-0.068240116009478	-0.068240116009478	-0.068240116009478	-0.068240116009478	-0.068240116009478	-0.068240116009478
-0.0732542383925844	-0.0732542383925844	-0.0732542383925844	-0.0732542383925844	-0.0732542383925844	-0.0732542383925844
-0.0795477983614536	-0.0795477983614536	-0.0795477983614536	-0.0795477983614536	-0.0795477983614536	-0.0795477983614536
-0.0889127437050429	-0.0889127437050429	-0.0889127437050429	-0.0889127437050429	-0.0889127437050429	-0.0889127437050429
-0.103052045969578	-0.103052045969578	-0.103052045969578	-0.103052045969578	-0.103052045969578	-0.103052045969578
-0.122582627798397	-0.122582627798397	-0.122582627798397	-0.122582627798397	-0.122582627798397	-0.122582627798397
-0.147035362931945	-0.147035362931945	-0.147035362931945	-0.147035362931945	-0.147035362931945	-0.147035362931945
-0.174855076207778	-0.174855076207778	-0.174855076207778	-0.174855076207778	-0.174855076207778	-0.174855076207778
-0.203400543560564	-0.203400543560564	-0.203400543560564	-0.203400543560564	-0.203400543560564	-0.203400543560564
-0.22903069053477	-0.22903069053477	-0.22903069053477	-0.22903069053477	-0.22903069053477	-0.22903069053477
-0.244912563621743	-0.244912563621743	-0.244912563621743	-0.244912563621743	-0.244912563621743	-0.244912563621743
-0.243206056013782	-0.243206056013782	-0.243206056013782	-0.243206056013782	-0.243206056013782	-0.243206056013782
-0.217352271299	-0.217352271299	-0.217352271299	-0.217352271299	-0.217352271299	-0.217352271299
-0.162084275121667	-0.162084275121667	-0.162084275121667	-0.162084275121667	-0.162084275121667	-0.162084275121667
-0.0734270951822082	-0.0734270951822082	-0.0734270951822082	-0.0734270951822082	-0.0734270951822082	-0.0734270951822082
0.0513022787627907	0.0513022787627907	0.0513022787627907	0.0513022787627907	0.0513022787627907	0.0513022787627907
0.21326450328562	0.21326450328562	0.21326450328562	0.21326450328562	0.21326450328562	0.21326450328562
0.403743245783232	0.403743245783232	0.403743245783232	0.403743245783232	0.403743245783232	0.403743245783232
0.605273319455984	0.605273319455984	0.605273319455984	0.605273319455984	0.605273319455984	0.605273319455984
0.798353720317785	0.798353720317785	0.798353720317785	0.798353720317785	0.798353720317785	0.798353720317785
0.961574687867352	0.961574687867352	0.961574687867352	0.961574687867352	0.961574687867352	0.961574687867352
1.07161770508822	1.07161770508822	1.07161770508822	1.07161770508822	1.07161770508822	1.07161770508822
1.10462783356227	1.10462783356227	1.10462783356227	1.10462783356227	1.10462783356227	1.10462783356227
1.05485430501366	1.05485430501366	1.05485430501366	1.05485430501366	1.05485430501366	1.05485430501366
0.933256231003842	0.933256231003842	0.933256231003842	0.933256231003842	0.933256231003842	0.933256231003842
0.755885775491666	0.755885775491666	0.755885775491666	0.755885775491666	0.755885775491666	0.755885775491666
0.543659605334988	0.543659605334988	0.543659605334988	0.543659605334988	0.543659605334988	0.543659605334988
0.32235889029067	0.32235889029067	0.32235889029067	0.32235889029067	0.32235889029067	0.32235889029067
0.117042385081117	0.117042385081117	0.117042385081117	0.117042385081117	0.117042385081117	0.117042385081117
-0.0594093091458667	-0.0594093091458667	-0.0594093091458667	-0.0594093091458667	-0.0594093091458667	-0.0594093091458667
-0.198646779892807	-0.198646779892807	-0.198646779892807	-0.198646779892807	-0.198646779892807	-0.198646779892807
-0.296738430549524	-0.296738430549524	-0.296738430549524	-0.296738430549524	-0.296738430549524	-0.296738430549524
-0.354173527929486	-0.354173527929486	-0.354173527929486	-0.354173527929486	-0.354173527929486	-0.354173527929486
-0.375485386551121	-0.375485386551121	-0.375485386551121	-0.375485386551121	-0.375485386551121	-0.375485386551121
-0.366854707398623	-0.366854707398623	-0.366854707398623	-0.366854707398623	-0.366854707398623	-0.366854707398623
-0.337811501205273	-0.337811501205273	-0.337811501205273	-0.337811501205273	-0.337811501205273	-0.337811501205273
-0.297162116443588	-0.297162116443588	-0.297162116443588	-0.297162116443588	-0.297162116443588	-0.297162116443588
-0.252269715267475	-0.252269715267475	-0.252269715267475	-0.252269715267475	-0.252269715267475	-0.252269715267475
-0.20905427351223	-0.20905427351223	-0.20905427351223	-0.20905427351223	-0.20905427351223	-0.20905427351223
-0.171992580694544	-0.171992580694544	-0.171992580694544	-0.171992580694544	-0.171992580694544	-0.171992580694544
-0.143748280568188	-0.143748280568188	-0.143748280568188	-0.143748280568188	-0.143748280568188	-0.143748280568188
-0.123556061804972	-0.123556061804972	-0.123556061804972	-0.123556061804972	-0.123556061804972	-0.123556061804972
-0.10967030695711	-0.10967030695711	-0.10967030695711	-0.10967030695711	-0.10967030695711	-0.10967030695711
-0.100521184223889	-0.100521184223889	-0.100521184223889	-0.100521184223889	-0.100521184223889	-0.100521184223889
-0.0947168299207912	-0.0947168299207912	-0.0947168299207912	-0.0947168299207912	-0.0947168299207912	-0.0947168299207912
-0.0910433484794936	-0.0910433484794936	-0.0910433484794936	-0.0910433484794936	-0.0910433484794936	-0.0910433484794936
-0.088464812447868	-0.088464812447868	-0.088464812447868	-0.088464812447868	-0.088464812447868	-0.088464812447868
-0.0861758183505804	-0.0861758183505804	-0.0861758183505804	-0.0861758183505804	-0.0861758183505804	-0.0861758183505804
-0.083886249885833	-0.083886249885833	-0.083886249885833	-0.083886249885833	-0.083886249885833	-0.083886249885833
-0.0814746183929766	-0.0814746183929766	-0.0814746183929766	-0.0814746183929766	-0.0814746183929766	-0.0814746183929766
-0.0788324695220404	-0.0788324695220404	-0.0788324695220404	-0.0788324695220404	-0.0788324695220404	-0.0788324695220404
-0.0758673950857676	-0.0758673950857676	-0.0758673950857676	-0.0758673950857676	-0.0758673950857676	-0.0758673950857676
-0.0725030330596151	-0.0725030330596151	-0.0725030330596151	-0.0725030330596151	-0.0725030330596151	-0.0725030330596151
-0.0686790675817538	-0.0686790675817538	-0.0686790675817538	-0.0686790675817538	-0.0686790675817538	-0.0686790675817538
-0.0643512289530681	-0.0643512289530681	-0.0643512289530681	-0.0643512289530681	-0.0643512289530681	-0.0643512289530681
-0.0594912936371564	-0.0594912936371564	-0.0594912936371564	-0.0594912936371564	-0.0594912936371564	-0.0594912936371564
-0.0540860790890308	-0.0540860790890308	-0.0540860790890308	-0.0540860790890308	-0.0540860790890308	-0.0540860790890308
-0.0480973149741865	-0.0480973149741865	-0.0480973149741865	-0.0480973149741865	-0.0480973149741865	-0.0480973149741865
-0.0414629088579535	-0.0414629088579535	-0.0414629088579535	-0.0414629088579535	-0.0414629088579535	-0.0414629088579535
-0.0341299044970407	-0.0341299044970407	-0.0341299044970407	-0.0341299044970407	-0.0341299044970407	-0.0341299044970407
-0.0260552509126573	-0.0260552509126573	-0.0260552509126573	-0.0260552509126573	-0.0260552509126573	-0.0260552509126573
-0.0172058023905125	-0.0172058023905125	-0.0172058023905125	-0.0172058023905125	-0.0172058023905125	-0.0172058023905125
-0.00755831848081545	-0.00755831848081545	-0.00755831848081545	-0.00755831848081545	-0.00755831848081545	-0.00755831848081545
0.00290053600172424	0.00290053600172424	0.00290053600172424	0.00290053600172424	0.00290053600172424	0.00290053600172424
0.014174190977897	0.014174190977897	0.014174190977897	0.014174190977897	0.014174190977897	0.014174190977897
0.0262561711039929	0.0262561711039929	0.0262561711039929	0.0262561711039929	0.0262561711039929	0.0262561711039929
0.0391300957718023	0.0391300957718023	0.0391300957718023	0.0391300957718023	0.0391300957718023	0.0391300957718023
0.052769679108615	0.052769679108615	0.052769679108615	0.052769679108615	0.052769679108615	0.052769679108615
0.067138729977221	0.067138729977221	0.067138729977221	0.067138729977221	0.067138729977221	0.067138729977221
0.0821911519759099	0.0821911519759099	0.0821911519759099	0.0821911519759099	0.0821911519759099	0.0821911519759099
0.0978709434384715	0.0978709434384715	0.0978709434384715	0.0978709434384715	0.0978709434384715	0.0978709434384715
0.114112197434195	0.114112197434195	0.114112197434195	0.114112197434195	0.114112197434195	0.114112197434195
0.13084494515011	0.13084494515011	0.13084494515011	0.13084494515011	0.13084494515011	0.13084494515011
0.148014566808679	0.148014566808679	0.148014566808679	0.148014566808679	0.148014566808679	0.148014566808679
0.165475981604384	0.165475981604384	0.165475981604384	0.165475981604384	0.165475981604384	0.165475981604384
0.183068234376165	0.183068234376165	0.183068234376165	0.183068234376165	0.183068234376165	0.183068234376165
0.20063285957605	0.20063285957605	0.20063285957605	0.20063285957605	0.20063285957605	0.20063285957605
0.218013881269152	0.218013881269152	0.218013881269152	0.218013881269152	0.218013881269152	0.218013881269152
0.23505781313367	0.23505781313367	0.23505781313367	0.23505781313367	0.23505781313367	0.23505781313367
0.251613658460891	0.251613658460891	0.251613658460891	0.251613658460891	0.251613658460891	0.251613658460891
0.267532910155185	0.267532910155185	0.267532910155185	0.267532910155185	0.267532910155185	0.267532910155185
0.282669550734012	0.282669550734012	0.282669550734012	0.282669550734012	0.282669550734012	0.282669550734012
0.296880052327914	0.296880052327914	0.296880052327914	0.296880052327914	0.296880052327914	0.296880052327914
0.310023376680523	0.310023376680523	0.310023376680523	0.310023376680523	0.310023376680523	0.310023376680523
0.321960975148555	0.321960975148555	0.321960975148555	0.321960975148555	0.321960975148555	0.321960975148555
0.332556788701811	0.332556788701811	0.332556788701811	0.332556788701811	0.332556788701811	0.332556788701811
0.341677247923182	0.341677247923182	0.341677247923182	0.341677247923182	0.341677247923182	0.341677247923182
0.349191273008642	0.349191273008642	0.349191273008642	0.349191273008642	0.349191273008642	0.349191273008642
0.354970273767252	0.354970273767252	0.354970273767252	0.354970273767252	0.354970273767252	0.354970273767252
0.358896754753293	0.358896754753293	0.358896754753293	0.358896754753293	0.358896754753293	0.358896754753293
0.360926690189191	0.360926690189191	0.360926690189191	0.360926690189191	0.360926690189191	0.360926690189191
0.361056205069889	0.361056205069889	0.361056205069889	0.361056205069889	0.361056205069889	0.361056205069889
0.359295434002379	0.359295434002379	0.359295434002379	0.359295434002379	0.359295434002379	0.359295434002379
0.355668896246267	0.355668896246267	0.355668896246267	0.355668896246267	0.355668896246267	0.355668896246267
0.350215495713772	0.350215495713772	0.350215495713772	0.350215495713772	0.350215495713772	0.350215495713772
0.342988520969727	0.342988520969727	0.342988520969727	0.342988520969727	0.342988520969727	0.342988520969727
0.334055645231579	0.334055645231579	0.334055645231579	0.334055645231579	0.334055645231579	0.334055645231579
0.323498926369389	0.323498926369389	0.323498926369389	0.323498926369389	0.323498926369389	0.323498926369389
0.31141480690583	0.31141480690583	0.31141480690583	0.31141480690583	0.31141480690583	0.31141480690583
0.297914114016192	0.297914114016192	0.297914114016192	0.297914114016192	0.297914114016192	0.297914114016192
0.283122059528374	0.283122059528374	0.283122059528374	0.283122059528374	0.283122059528374	0.283122059528374
0.267178239922893	0.267178239922893	0.267178239922893	0.267178239922893	0.267178239922893	0.267178239922893
0.250236636332878	0.250236636332878	0.250236636332878	0.250236636332878	0.250236636332878	0.250236636332878
0.23246561454407	0.23246561454407	0.23246561454407	0.23246561454407	0.23246561454407	0.23246561454407
0.214047924994829	0.214047924994829	0.214047924994829	0.214047924994829	0.214047924994829	0.214047924994829
0.195180702776123	0.195180702776123	0.195180702776123	0.195180702776123	0.195180702776123	0.195180702776123
0.176075467631535	0.176075467631535	0.176075467631535	0.176075467631535	0.176075467631535	0.176075467631535
0.156886772330389	0.156886772330389	0.156886772330389	0.156886772330389	0.156886772330389	0.156886772330389
0.137718681372005	0.137718681372005	0.137718681372005	0.137718681372005	0.137718681372005	0.137718681372005
0.118719456353783	0.118719456353783	0.118719456353783	0.118719456353783	0.118719456353783	0.118719456353783
0.100023840432178	0.100023840432178	0.100023840432178	0.100023840432178	0.100023840432178	0.100023840432178
0.081752993192424	0.081752993192424	0.081752993192424	0.081752993192424	0.081752993192424	0.081752993192424
0.0640144906485291	0.0640144906485291	0.0640144906485291	0.0640144906485291	0.0640144906485291	0.0640144906485291
0.0469023252432786	0.0469023252432786	0.0469023252432786	0.0469023252432786	0.0469023252432786	0.0469023252432786
0.0304969058482332	0.0304969058482332	0.0304969058482332	0.0304969058482332	0.0304969058482332	0.0304969058482332
0.0148650577637301	0.0148650577637301	0.0148650577637301	0.0148650577637301	0.0148650577637301	0.0148650577637301
6.00227188824465e-05	6.00227188824465e-05	6.00227188824465e-05	6.00227188824465e-05	6.00227188824465e-05	6.00227188824465e-05
-0.0138785411284208	-0.0138785411284208	-0.0138785411284208	-0.0138785411284208	-0.0138785411284208	-0.0138785411284208
-0.0269245591915146	-0.0269245591915146	-0.0269245591915146	-0.0269245591915146	-0.0269245591915146	-0.0269245591915146
-0.0390655404549575	-0.0390655404549575	-0.0390655404549575	-0.0390655404549575	-0.0390655404549575	-0.0390655404549575
-0.0503025774745324	-0.0503025774745324	-0.0503025774745324	-0.0503025774745324	-0.0503025774745324	-0.0503025774745324
-0.060650346377246	-0.060650346377246	-0.060650346377246	-0.060650346377246	-0.060650346377246	-0.060650346377246
-0.0701317201780907	-0.0701317201780907	-0.0701317201780907	-0.0701317201780907	-0.0701317201780907	-0.0701317201780907
-0.0787411170689465	-0.0787411170689465	-0.0787411170689465	-0.0787411170689465	-0.0787411170689465	-0.0787411170689465
-0.0865185184047051	-0.0865185184047051	-0.0865185184047051	-0.0865185184047051	-0.0865185184047051	-0.0865185184047051
-0.0935148026358817	-0.0935148026358817	-0.0935148026358817	-0.0935148026358817	-0.0935148026358817	-0.0935148026358817
-0.0997794991848491	-0.0997794991848491	-0.0997794991848491	-0.0997794991848491	-0.0997794991848491	-0.0997794991848491
-0.105360788445838	-0.105360788445838	-0.105360788445838	-0.105360788445838	-0.105360788445838	-0.105360788445838
-0.110305501784936	-0.110305501784936	-0.110305501784936	-0.110305501784936	-0.110305501784936	-0.110305501784936
-0.114659121540089	-0.114659121540089	-0.114659121540089	-0.114659121540089	-0.114659121540089	-0.114659121540089
-0.1184657810211	-0.1184657810211	-0.1184657810211	-0.1184657810211	-0.1184657810211	-0.1184657810211
-0.121768264509631	-0.121768264509631	-0.121768264509631	-0.121768264509631	-0.121768264509631	-0.121768264509631
-0.124608007259201	-0.124608007259201	-0.124608007259201	-0.124608007259201	-0.124608007259201	-0.124608007259201
-0.127025095495186	-0.127025095495186	-0.127025095495186	-0.127025095495186	-0.127025095495186	-0.127025095495186
-0.129058266414821	-0.129058266414821	-0.129058266414821	-0.129058266414821	-0.129058266414821	-0.129058266414821
-0.130744908187196	-0.130744908187196	-0.130744908187196	-0.130744908187196	-0.130744908187196	-0.130744908187196
-0.132121059953263	-0.132121059953263	-0.132121059953263	-0.132121059953263	-0.132121059953263	-0.132121059953263
-0.133221411825828	-0.133221411825828	-0.133221411825828	-0.133221411825828	-0.133221411825828	-0.133221411825828
-0.134079304889555	-0.134079304889555	-0.134079304889555	-0.134079304889555	-0.134079304889555	-0.134079304889555
-0.134726731200969	-0.134726731200969	-0.134726731200969	-0.134726731200969	-0.134726731200969	-0.134726731200969
-0.135194333788448	-0.135194333788448	-0.135194333788448	-0.135194333788448	-0.135194333788448	-0.135194333788448
-0.135511406652232	-0.135511406652232	-0.135511406652232	-0.135511406652232	-0.135511406652232	-0.135511406652232
-0.135699933281059	-0.135699933281059	-0.135699933281059	-0.135699933281059	-0.135699933281059	-0.135699933281059
-0.135732632765415	-0.135732632765415	-0.135732632765415	-0.135732632765415	-0.135732632765415	-0.135732632765415
-0.135621816710053	-0.135621816710053	-0.135621816710053	-0.135621816710053	-0.135621816710053	-0.135621816710053
-0.13539089165611	-0.13539089165611	-0.13539089165611	-0.13539089165611	-0.13539089165611	-0.13539089165611
-0.135061428375847	-0.135061428375847	-0.135061428375847	-0.135061428375847	-0.135061428375847	-0.135061428375847
-0.134653161872653	-0.134653161872653	-0.134653161872653	-0.134653161872653	-0.134653161872653	-0.134653161872653
-0.134183991381041	-0.134183991381041	-0.134183991381041	-0.134183991381041	-0.134183991381041	-0.134183991381041
-0.133669980366649	-0.133669980366649	-0.133669980366649	-0.133669980366649	-0.133669980366649	-0.133669980366649
-0.133125356526242	-0.133125356526242	-0.133125356526242	-0.133125356526242	-0.133125356526242	-0.133125356526242
-0.132562511787708	-0.132562511787708	-0.132562511787708	-0.132562511787708	-0.132562511787708	-0.132562511787708
-0.131992002310063	-0.131992002310063	-0.131992002310063	-0.131992002310063	-0.131992002310063	-0.131992002310063
-0.131422548483447	-0.131422548483447	-0.131422548483447	-0.131422548483447	-0.131422548483447	-0.131422548483447
-0.130861034929127	-0.130861034929127	-0.130861034929127	-0.130861034929127	-0.130861034929127	-0.130861034929127
-0.130312510499493	-0.130312510499493	-0.130312510499493	-0.130312510499493	-0.130312510499493	-0.130312510499493
-0.129780188278063	-0.129780188278063	-0.129780188278063	-0.129780188278063	-0.129780188278063	-0.129780188278063
-0.129265445579479	-0.129265445579479	-0.129265445579479	-0.129265445579479	-0.129265445579479	-0.129265445579479
-0.128767823949508	-0.128767823949508	-0.128767823949508	-0.128767823949508	-0.128767823949508	-0.128767823949508
-0.128285029165044	-0.128285029165044	-0.128285029165044	-0.128285029165044	-0.128285029165044	-0.128285029165044
-0.127812931234106	-0.127812931234106	-0.127812931234106	-0.127812931234106	-0.127812931234106	-0.127812931234106
-0.127345564395837	-0.127345564395837	-0.127345564395837	-0.127345564395837	-0.127345564395837	-0.127345564395837
-0.126875127120509	-0.126875127120509	-0.126875127120509	-0.126875127120509	-0.126875127120509	-0.126875127120509
-0.126391982109515	-0.126391982109515	-0.126391982109515	-0.126391982109515	-0.126391982109515	-0.126391982109515
-0.125886462852263	-0.125886462852263	-0.125886462852263	-0.125886462852263	-0.125886462852263	-0.125886462852263
-0.12536064155323	-0.12536064155323	-0.12536064155323	-0.12536064155323	-0.12536064155323	-0.12536064155323
-0.124821578310692	-0.124821578310692	-0.124821578310692	-0.124821578310692	-0.124821578310692	-0.124821578310692
-0.124275539706845	-0.124275539706845	-0.124275539706845	-0.124275539706845	-0.124275539706845	-0.124275539706845
-0.123727971954876	-0.123727971954876	-0.123727971954876	-0.123727971954876	-0.123727971954876	-0.123727971954876
-0.12318350089896	-0.12318350089896	-0.12318350089896	-0.12318350089896	-0.12318350089896	-0.12318350089896
-0.122645932014261	-0.122645932014261	-0.122645932014261	-0.122645932014261	-0.122645932014261	-0.122645932014261
-0.122118250406934	-0.122118250406934	-0.122118250406934	-0.122118250406934	-0.122118250406934	-0.122118250406934
-0.12160262081412	-0.12160262081412	-0.12160262081412	-0.12160262081412	-0.12160262081412	-0.12160262081412
-0.12110038760395	-0.12110038760395	-0.12110038760395	-0.12110038760395	-0.12110038760395	-0.12110038760395
-0.120612074775544	-0.120612074775544	-0.120612074775544	-0.120612074775544	-0.120612074775544	-0.120612074775544
-0.120137385959012	-0.120137385959012	-0.120137385959012	-0.120137385959012	-0.120137385959012	-0.120137385959012
-0.119675204415452	-0.119675204415452	-0.119675204415452	-0.119675204415452	-0.119675204415452	-0.119675204415452
-0.119223593036949	-0.119223593036949	-0.119223593036949	-0.119223593036949	-0.119223593036949	-0.119223593036949
-0.118779794346581	-0.118779794346581	-0.118779794346581	-0.118779794346581	-0.118779794346581	-0.118779794346581
-0.118340230498412	-0.118340230498412	-0.118340230498412	-0.118340230498412	-0.118340230498412	-0.118340230498412
-0.117900503277496	-0.117900503277496	-0.117900503277496	-0.117900503277496	-0.117900503277496	-0.117900503277496
-0.117455394099874	-0.117455394099874	-0.117455394099874	-0.117455394099874	-0.117455394099874	-0.117455394099874
-0.11699886401258	-0.11699886401258	-0.11699886401258	-0.11699886401258	-0.11699886401258	-0.11699886401258
-0.116524053693634	-0.116524053693634	-0.116524053693634	-0.116524053693634	-0.116524053693634	-0.116524053693634
-0.116023283452045	-0.116023283452045	-0.116023283452045	-0.116023283452045	-0.116023283452045	-0.116023283452045
-0.115488053227811	-0.115488053227811	-0.115488053227811	-0.115488053227811	-0.115488053227811	-0.115488053227811
-0.114909042591919	-0.114909042591919	-0.114909042591919	-0.114909042591919	-0.114909042591919	-0.114909042591919
-0.114276110746347	-0.114276110746347	-0.114276110746347	-0.114276110746347	-0.114276110746347	-0.114276110746347
-0.11357829652406	-0.11357829652406	-0.11357829652406	-0.11357829652406	-0.11357829652406	-0.11357829652406
-0.112803818389011	-0.112803818389011	-0.112803818389011	-0.112803818389011	-0.112803818389011	-0.112803818389011
-0.111940074436144	-0.111940074436144	-0.111940074436144	-0.111940074436144	-0.111940074436144	-0.111940074436144
-0.11097364239139	-0.11097364239139	-0.11097364239139	-0.11097364239139	-0.11097364239139	-0.11097364239139
-0.109888576428766	-0.109888576428766	-0.109888576428766	-0.109888576428766	-0.109888576428766	-0.109888576428766
-0.108639505825906	-0.108639505825906	-0.108639505825906	-0.108639505825906	-0.108639505825906	-0.108639505825906
-0.107155517452543	-0.107155517452543	-0.107155517452543	-0.107155517452543	-0.107155517452543	-0.107155517452543
-0.105361423788036	-0.105361423788036	-0.105361423788036	-0.105361423788036	-0.105361423788036	-0.105361423788036
-0.103178326378434	-0.103178326378434	-0.103178326378434	-0.103178326378434	-0.103178326378434	-0.103178326378434
-0.10052361583648	-0.10052361583648	-0.10052361583648	-0.10052361583648	-0.10052361583648	-0.10052361583648
-0.0973109718416124	-0.0973109718416124	-0.0973109718416124	-0.0973109718416124	-0.0973109718416124	-0.0973109718416124
-0.0934503631399585	-0.0934503631399585	-0.0934503631399585	-0.0934503631399585	-0.0934503631399585	-0.0934503631399585
-0.0888480475443413	-0.0888480475443413	-0.0888480475443413	-0.0888480475443413	-0.0888480475443413	-0.0888480475443413
-0.0834065719342757	-0.0834065719342757	-0.0834065719342757	-0.0834065719342757	-0.0834065719342757	-0.0834065719342757
-0.0770247722559698	-0.0770247722559698	-0.0770247722559698	-0.0770247722559698	-0.0770247722559698	-0.0770247722559698
-0.0695977735223246	-0.0695977735223246	-0.0695977735223246	-0.0695977735223246	-0.0695977735223246	-0.0695977735223246
-0.061016989812934	-0.061016989812934	-0.061016989812934	-0.061016989812934	-0.061016989812934	-0.061016989812934
-0.0511701670454115	-0.0511701670454115	-0.0511701670454115	-0.0511701670454115	-0.0511701670454115	-0.0511701670454115
-0.0399835256508442	-0.0399835256508442	-0.0399835256508442	-0.0399835256508442	-0.0399835256508442	-0.0399835256508442
-0.0274644995617427	-0.0274644995617427	-0.0274644995617427	-0.0274644995617427	-0.0274644995617427	-0.0274644995617427
-0.0136577395855527	-0.0136577395855527	-0.0136577395855527	-0.0136577395855527	-0.0136577395855527	-0.0136577395855527
0.00134895622673209	0.00134895622673209	0.00134895622673209	0.00134895622673209	0.00134895622673209	0.00134895622673209
0.0174246425805696	0.0174246425805696	0.0174246425805696	0.0174246425805696	0.0174246425805696	0.0174246425805696
0.034395226937869	0.034395226937869	0.034395226937869	0.034395226937869	0.034395226937869	0.034395226937869
0.0520434695169913	0.0520434695169913	0.0520434695169913	0.0520434695169913	0.0520434695169913	0.0520434695169913
0.0701089832927489	0.0701089832927489	0.0701089832927489	0.0701089832927489	0.0701089832927489	0.0701089832927489
0.0882882339964061	0.0882882339964061	0.0882882339964061	0.0882882339964061	0.0882882339964061	0.0882882339964061
0.106234540115679	0.106234540115679	0.106234540115679	0.106234540115679	0.106234540115679	0.106234540115679
0.123558072894734	0.123558072894734	0.123558072894734	0.123558072894734	0.123558072894734	0.123558072894734
0.13982585633419	0.13982585633419	0.13982585633419	0.13982585633419	0.13982585633419	0.13982585633419
0.154561767191118	0.154561767191118	0.154561767191118	0.154561767191118	0.154561767191118	0.154561767191118
0.167290318280486	0.167290318280486	0.167290318280486	0.167290318280486	0.167290318280486	0.167290318280486
0.177736217771862	0.177736217771862	0.177736217771862	0.177736217771862	0.177736217771862	0.177736217771862
0.185597619940025	0.185597619940025	0.185597619940025	0.185597619940025	0.185597619940025	0.185597619940025
0.190638048163203	0.190638048163203	0.190638048163203	0.190638048163203	0.190638048163203	0.190638048163203
0.192706038278452	0.192706038278452	0.192706038278452	0.192706038278452	0.192706038278452	0.192706038278452
0.191735138581656	0.191735138581656	0.191735138581656	0.191735138581656	0.191735138581656	0.191735138581656
0.187743909827522	0.187743909827522	0.187743909827522	0.187743909827522	0.187743909827522	0.187743909827522
0.180835925229585	0.180835925229585	0.180835925229585	0.180835925229585	0.180835925229585	0.180835925229585
0.171199770460204	0.171199770460204	0.171199770460204	0.171199770460204	0.171199770460204	0.171199770460204
0.159109043650568	0.159109043650568	0.159109043650568	0.159109043650568	0.159109043650568	0.159109043650568
0.144922355390687	0.144922355390687	0.144922355390687	0.144922355390687	0.144922355390687	0.144922355390687
0.129050680759087	0.129050680759087	0.129050680759087	0.129050680759087	0.129050680759087	0.129050680759087
0.111856821881597	0.111856821881597	0.111856821881597	0.111856821881597	0.111856821881597	0.111856821881597
0.093810282945749	0.093810282945749	0.093810282945749	0.093810282945749	0.093810282945749	0.093810282945749
0.075351117109754	0.075351117109754	0.075351117109754	0.075351117109754	0.075351117109754	0.075351117109754
0.0568730451876779	0.0568730451876779	0.0568730451876779	0.0568730451876779	0.0568730451876779	0.0568730451876779
0.0387234556494313	0.0387234556494313	0.0387234556494313	0.0387234556494313	0.0387234556494313	0.0387234556494313
0.0212034046207721	0.0212034046207721	0.0212034046207721	0.0212034046207721	0.0212034046207721	0.0212034046207721
0.00456761588330573	0.00456761588330573	0.00456761588330573	0.00456761588330573	0.00456761588330573	0.00456761588330573
-0.010975519125515	-0.010975519125515	-0.010975519125515	-0.010975519125515	-0.010975519125515	-0.010975519125515
-0.0252639413123899	-0.0252639413123899	-0.0252639413123899	-0.0252639413123899	-0.0252639413123899	-0.0252639413123899
-0.03820894657519	-0.03820894657519	-0.03820894657519	-0.03820894657519	-0.03820894657519	-0.03820894657519
-0.0499818170198028	-0.0499818170198028	-0.0499818170198028	-0.0499818170198028	-0.0499818170198028	-0.0499818170198028
-0.060439575925154	-0.060439575925154	-0.060439575925154	-0.060439575925154	-0.060439575925154	-0.060439575925154
-0.0694322811720435	-0.0694322811720435	-0.0694322811720435	-0.0694322811720435	-0.0694322811720435	-0.0694322811720435
-0.0769154306467358	-0.0769154306467358	-0.0769154306467358	-0.0769154306467358	-0.0769154306467358	-0.0769154306467358
-0.0829499622409617	-0.0829499622409617	-0.0829499622409617	-0.0829499622409617	-0.0829499622409617	-0.0829499622409617
-0.0877022538519169	-0.0877022538519169	-0.0877022538519169	-0.0877022538519169	-0.0877022538519169	-0.0877022538519169
-0.0914441233822627	-0.0914441233822627	-0.0914441233822627	-0.0914441233822627	-0.0914441233822627	-0.0914441233822627
-0.0945528287401257	-0.0945528287401257	-0.0945528287401257	-0.0945528287401257	-0.0945528287401257	-0.0945528287401257
-0.0975110678390979	-0.0975110678390979	-0.0975110678390979	-0.0975110678390979	-0.0975110678390979	-0.0975110678390979
-0.100906978598237	-0.100906978598237	-0.100906978598237	-0.100906978598237	-0.100906978598237	-0.100906978598237
-0.105434138942066	-0.105434138942066	-0.105434138942066	-0.105434138942066	-0.105434138942066	-0.105434138942066
-0.111891566800573	-0.111891566800573	-0.111891566800573	-0.111891566800573	-0.111891566800573	-0.111891566800573
-0.121182927030742	-0.121182927030742	-0.121182927030742	-0.121182927030742	-0.121182927030742	-0.121182927030742
-0.134327169756225	-0.134327169756225	-0.134327169756225	-0.134327169756225	-0.134327169756225	-0.134327169756225
-0.152620477127097	-0.152620477127097	-0.152620477127097	-0.152620477127097	-0.152620477127097	-0.152620477127097
-0.176208979608638	-0.176208979608638	-0.176208979608638	-0.176208979608638	-0.176208979608638	-0.176208979608638
-0.203653221326193	-0.203653221326193	-0.203653221326193	-0.203653221326193	-0.203653221326193	-0.203653221326193
-0.231928160065173	-0.231928160065173	-0.231928160065173	-0.231928160065173	-0.231928160065173	-0.231928160065173
-0.256423167271058	-0.256423167271058	-0.256423167271058	-0.256423167271058	-0.256423167271058	-0.256423167271058
-0.271365925724232	-0.271365925724232	-0.271365925724232	-0.271365925724232	-0.271365925724232	-0.271365925724232
-0.269804692663552	-0.269804692663552	-0.269804692663552	-0.269804692663552	-0.269804692663552	-0.269804692663552
-0.243956382798643	-0.243956382798643	-0.243956382798643	-0.243956382798643	-0.243956382798643	-0.243956382798643
-0.187951892146085	-0.187951892146085	-0.187951892146085	-0.187951892146085	-0.187951892146085	-0.187951892146085
-0.0979390010694073	-0.0979390010694073	-0.0979390010694073	-0.0979390010694073	-0.0979390010694073	-0.0979390010694073
0.0279176257209132	0.0279176257209132	0.0279176257209132	0.0279176257209132	0.0279176257209132	0.0279176257209132
0.189648264240707	0.189648264240707	0.189648264240707	0.189648264240707	0.189648264240707	0.189648264240707
0.381914638282274	0.381914638282274	0.381914638282274	0.381914638282274	0.381914638282274	0.381914638282274
0.585370552589619	0.585370552589619	0.585370552589619	0.585370552589619	0.585370552589619	0.585370552589619
0.778704113459286	0.778704113459286	0.778704113459286	0.778704113459286	0.778704113459286	0.778704113459286
0.940609105232502	0.940609105232502	0.940609105232502	0.940609105232502	0.940609105232502	0.940609105232502
1.04978499029518	1.04978499029518	1.04978499029518	1.04978499029518	1.04978499029518	1.04978499029518
1.0849729895752	1.0849729895752	1.0849729895752	1.0849729895752	1.0849729895752	1.0849729895752
1.03493411180924	1.03493411180924	1.03493411180924	1.03493411180924	1.03493411180924	1.03493411180924
0.912278306834201	0.912278306834201	0.912278306834201	0.912278306834201	0.912278306834201	0.912278306834201
0.735230108249771	0.735230108249771	0.735230108249771	0.735230108249771	0.735230108249771	0.735230108249771
0.524707426859785	0.524707426859785	0.524707426859785	0.524707426859785	0.524707426859785	0.524707426859785
0.304321550671928	0.304321550671928	0.304321550671928	0.304321550671928	0.304321550671928	0.304321550671928
0.0990912049267635	0.0990912049267635	0.0990912049267635	0.0990912049267635	0.0990912049267635	0.0990912049267635
-0.0763458076613003	-0.0763458076613003	-0.0763458076613003	-0.0763458076613003	-0.0763458076613003	-0.0763458076613003
-0.214602404949095	-0.214602404949095	-0.214602404949095	-0.214602404949095	-0.214602404949095	-0.214602404949095
-0.312032011238073	-0.312032011238073	-0.312032011238073	-0.312032011238073	-0.312032011238073	-0.312032011238073
-0.368935693087072	-0.368935693087072	-0.368935693087072	-0.368935693087072	-0.368935693087072	-0.368935693087072
-0.389562159312488	-0.389562159312488	-0.389562159312488	-0.389562159312488	-0.389562159312488	-0.389562159312488
-0.380409263724476	-0.380409263724476	-0.380409263724476	-0.380409263724476	-0.380409263724476	-0.380409263724476
-0.350226082802904	-0.350226082802904	-0.350226082802904	-0.350226082802904	-0.350226082802904	-0.350226082802904
-0.308531191470032	-0.308531191470032	-0.308531191470032	-0.308531191470032	-0.308531191470032	-0.308531191470032
-0.263013863323692	-0.263013863323692	-0.263013863323692	-0.263013863323692	-0.263013863323692	-0.263013863323692
-0.219532636612921	-0.219532636612921	-0.219532636612921	-0.219532636612921	-0.219532636612921	-0.219532636612921
-0.182115314237887	-0.182115314237887	-0.182115314237887	-0.182115314237887	-0.182115314237887	-0.182115314237887
-0.15296963191053	-0.15296963191053	-0.15296963191053	-0.15296963191053	-0.15296963191053	-0.15296963191053
-0.132223039155796	-0.132223039155796	-0.132223039155796	-0.132223039155796	-0.132223039155796	-0.132223039155796
-0.118028875783562	-0.118028875783562	-0.118028875783562	-0.118028875783562	-0.118028875783562	-0.118028875783562
-0.108558940137156	-0.108558940137156	-0.108558940137156	-0.108558940137156	-0.108558940137156	-0.108558940137156
-0.102282091483287	-0.102282091483287	-0.102282091483287	-0.102282091483287	-0.102282091483287	-0.102282091483287
-0.0979642500120302	-0.0979642500120302	-0.0979642500120302	-0.0979642500120302	-0.0979642500120302	-0.0979642500120302
-0.0946683968368349	-0.0946683968368349	-0.0946683968368349	-0.0946683968368349	-0.0946683968368349	-0.0946683968368349
-0.0917545739945198	-0.0917545739945198	-0.0917545739945198	-0.0917545739945198	-0.0917545739945198	-0.0917545739945198
-0.0888798844452748	-0.0888798844452748	-0.0888798844452748	-0.0888798844452748	-0.0888798844452748	-0.0888798844452748
-0.0858747055869226	-0.0858747055869226	-0.0858747055869226	-0.0858747055869226	-0.0858747055869226	-0.0858747055869226
-0.0826026402929071	-0.0826026402929071	-0.0826026402929071	-0.0826026402929071	-0.0826026402929071	-0.0826026402929071
-0.0790018412410897	-0.0790018412410897	-0.0790018412410897	-0.0790018412410897	-0.0790018412410897	-0.0790018412410897
-0.0750141657478273	-0.0750141657478273	-0.0750141657478273	-0.0750141657478273	-0.0750141657478273	-0.0750141657478273
-0.0705851651903523	-0.0705851651903523	-0.0705851651903523	-0.0705851651903523	-0.0705851651903523	-0.0705851651903523
-0.0656640850067656	-0.0656640850067656	-0.0656640850067656	-0.0656640850067656	-0.0656640850067656	-0.0656640850067656
-0.0602038646960448	-0.0602038646960448	-0.0602038646960448	-0.0602038646960448	-0.0602038646960448	-0.0602038646960448
-0.0541611378180347	-0.0541611378180347	-0.0541611378180347	-0.0541611378180347	-0.0541611378180347	-0.0541611378180347
-0.0474962319934578	-0.0474962319934578	-0.0474962319934578	-0.0474962319934578	-0.0474962319934578	-0.0474962319934578
-0.0401731689039032	-0.0401731689039032	-0.0401731689039032	-0.0401731689039032	-0.0401731689039032	-0.0401731689039032
-0.0321596642918382	-0.0321596642918382	-0.0321596642918382	-0.0321596642918382	-0.0321596642918382	-0.0321596642918382
-0.0234271279605959	-0.0234271279605959	-0.0234271279605959	-0.0234271279605959	-0.0234271279605959	-0.0234271279605959
-0.0139506637743888	-0.0139506637743888	-0.0139506637743888	-0.0139506637743888	-0.0139506637743888	-0.0139506637743888
-0.00370906965829365	-0.00370906965829365	-0.00370906965829365	-0.00370906965829365	-0.00370906965829365	-0.00370906965829365
0.00731516240173141	0.00731516240173141	0.00731516240173141	0.00731516240173141	0.00731516240173141	0.00731516240173141
0.0191358463588661	0.0191358463588661	0.0191358463588661	0.0191358463588661	0.0191358463588661	0.0191358463588661
0.0317631021054071	0.0317631021054071	0.0317631021054071	0.0317631021054071	0.0317631021054071	0.0317631021054071
0.0452027994772914	0.0452027994772914	0.0452027994772914	0.0452027994772914	0.0452027994772914	0.0452027994772914
0.0594381444967222	0.0594381444967222	0.0594381444967222	0.0594381444967222	0.0594381444967222	0.0594381444967222
0.0744224871543933	0.0744224871543933	0.0744224871543933	0.0744224871543933	0.0744224871543933	0.0744224871543933
0.0900981129293205	0.0900981129293205	0.0900981129293205	0.0900981129293205	0.0900981129293205	0.0900981129293205
0.106397474890033	0.106397474890033	0.106397474890033	0.106397474890033	0.106397474890033	0.106397474890033
0.123243193694545	0.123243193694545	0.123243193694545	0.123243193694545	0.123243193694545	0.123243193694545
0.140548057590387	0.140548057590387	0.140548057590387	0.140548057590387	0.140548057590387	0.140548057590387
0.158215022414574	0.158215022414574	0.158215022414574	0.158215022414574	0.158215022414574	0.158215022414574
0.176137211593636	0.176137211593636	0.176137211593636	0.176137211593636	0.176137211593636	0.176137211593636
0.194197916143587	0.194197916143587	0.194197916143587	0.194197916143587	0.194197916143587	0.194197916143587
0.212270594669957	0.212270594669957	0.212270594669957	0.212270594669957	0.212270594669957	0.212270594669957
0.23021887336776	0.23021887336776	0.23021887336776	0.23021887336776	0.23021887336776	0.23021887336776
0.247896546021528	0.247896546021528	0.247896546021528	0.247896546021528	0.247896546021528	0.247896546021528
