0.0107696203492834	0.0103297379747607	0.00917963524747341	0.00749291217563538	0.00550665629041051	0.00343665304994114
0.00147524159117878	-0.000215599038329389	-0.00155563569286589	-0.00251862956398642	-0.00310609764091965	-0.0033472627777028
-0.00329905369318157	-0.00304171578660469	-0.00265557415771063	-0.00222087228718148	-0.00179949552185262	-0.00143309456758935
-0.0011430854892869	-0.00093064971087043	-0.000782442968716767	-0.000684025430089727	-0.000620070139761593	-0.000577901530063982
-0.000547519614885374	-0.00052159998967112	-0.000495493831423434	-0.000467227898701394	-0.000437358272347688	-0.000405068509900262
-0.000369251959245349	-0.000329472423021847	-0.000285306101590315	-0.000236341593032981	-0.000182179893153736	-0.000122434395478136
-5.67308912534076e-05	1.52924305515678e-05	9.39796419102518e-05	0.000179425283576436	0.000271895687681544	0.000371720353417119
0.000479110159223141	0.000594157362788028	0.000716835601048641	0.000846999890190275	0.000984386625646665	0.00112861358209999
0.00127917991348085	0.00143546615296831	0.00159673421298985	0.0017621273852214	0.00193067034058733	0.00210126912926044
0.00227271118066198	0.00244366530346163	0.00261268168557751	0.0027782028422709	0.00293920848513581	0.00309421344373684
0.00324140413866619	0.00337911946514971	0.00350585079304682	0.00362024196685058	0.00372108930568764	0.00380734160331826
0.00387810012813632	0.0039326186231693	0.00397030330607829	0.003990712869158	0.00399355847933672	0.00397870377817639
0.00394616488187253	0.00389576622003309	0.00382641319520636	0.00373958452776862	0.00363708108838129	0.00352064466535574
0.00339195796465329	0.00325264460988524	0.00310426914231283	0.00294833702084724	0.00278629462204962	0.0026195292401311
0.00244936908695272	0.00227708329202551	0.00210388190251044	0.00193091588321844	0.0017592771166104	0.00158999840279714
0.00142405345953949	0.00126235692224817	0.00110576434398391	0.000955072195457365	0.000811017865029149	0.000674279658709843
0.000545476800159983	0.000425169430690048	0.000313856711421642	0.000211696569337464	0.000118302294640325	3.32447990845619e-05
-4.3897935846085e-05	-0.000113540858938466	-0.000176091849250027	-0.000231951716108805	-0.000281514199113431	-0.00032516596813313
-0.00036328662330772	-0.000396248695047613	-0.000424417644033811	-0.000448151861217915	-0.000467802667822114	-0.000483714315339193
-0.00049622398553253	-0.000505661790436096	-0.000512350772354456	-0.000516606903862766	-0.000518739087806779	-0.000519049157302837
-0.00051783187573788	-0.000515374936769438	-0.000511958964325635	-0.000507670619380698	-0.000502189464131516	-0.000495679084195828
-0.000488324460051857	-0.000480294860512991	-0.000471743842727777	-0.000462809252179922	-0.000453613222688296	-0.000444262176406928
-0.000434846823825009	-0.00042544216376689	-0.000416107483392083	-0.000406886358195263	-0.000397806652006262	-0.000388880516990076
-0.000380104393646862	-0.000371459010811935	-0.000362909385655774	-0.000354404823684017	-0.000345878918737463	-0.000337249344561041
-0.000328445097306939	-0.000319504872502161	-0.00031048824329979	-0.000301447602133381	-0.000292428160716958	-0.000283467950045018
-0.00027459782039253	-0.000265841441314934	-0.000257215301648141	-0.000248728709508533	-0.000240383792292965	-0.000232175496678761
-0.00022409158862372	-0.000216112653366109	-0.000208212095424669	-0.000200356138598609	-0.000192503825967615	-0.00018460701989184
-0.000176610402011908	-0.000168451473248918	-0.000160060553804438	-0.000151360783160508	-0.00014226812007964	-0.000132691342604817
-0.000122532048059492	-0.000111684653047591	-0.000100036393453512	-8.74673244421237e-05	-7.37488562172384e-05	-5.83428727295138e-05
-4.06553647909691e-05	-2.00426346274141e-05	4.18942027049507e-06	3.27853071472561e-05	6.65399379825193e-05	0.00010629862949109
0.000152957103122926	0.000207461485063137	0.000270808306231988	0.000344044502284898	0.000428267413612438	0.00052427389758026
0.000632337305264662	0.000752710593384275	0.000885199822847457	0.00102915876339478	0.00118348889359903	0.00134663940086519
0.00151660718143045	0.00169093684036421	0.00186672069156809	0.00204059875777591	0.00220875877055369	0.00236693617029966
0.00251128069108458	0.00263856417972079	0.0027449631957735	0.00282741477449241	0.00288363423875214	0.00291211519905216
0.00291212955351687	0.00288372748789554	0.00282773747556235	0.00274576627751635	0.0026401989423815	0.00251414374998961
0.00237026351836528	0.00221275839863017	0.00204617965204372	0.00187465806222978	0.00170190393517666	0.00153120709923708
0.00136543690512822	0.00120704222593166	0.00105805145709346	0.000920072516424064	0.000794292844098389	0.000681479402655766
0.000581532880117265	0.000492579493526197	0.000415864684449186	0.0003521247190474	0.000300963910619057	0.000260854619599427
0.000229137253560823	0.000202020267212615	0.000174580162401219	0.000140761488110101	9.33768404597785e-05	2.41068627078139e-05
-7.62554167686136e-05	-0.000219184346824547	-0.00041271823006055	-0.000651561156185829	-0.000916568651758112	-0.00117476816799083
-0.00138052369095818	-0.00146978901493963	-0.00137799742691116	-0.00104711757847077	-0.000425653485838411	0.00052834470168171
0.00182702288655157	0.00344209142038475	0.00528827208454423	0.00722179426858509	0.00904039497025461	0.0104918554743438
0.01136001546822	0.0115149457460007	0.0109238623912664	0.00965271577792598	0.00786619057021661	0.00582339183321235
0.00376131258872657	0.00185139530541033	0.000223305272256605	-0.00104391306427009	-0.00192183610023369	-0.00242727331607129
-0.00259470413176422	-0.00250114344733051	-0.00222423657485368	-0.00183557818408978	-0.00140071230246743	-0.000979132315087751
-0.000622495159660844	-0.000346714654124519	-0.000142481368783211	1.13274582153211e-06	9.64257184933204e-05	0.000157065557380929
0.000198064659727816	0.00023064714927124	0.00025870005167274	0.000285368138221382	0.000313029199293982	0.000343294044355105
0.000377006501957074	0.000414256606599893	0.000455294845364954	0.000500713481227428	0.000550931026817186	0.000606346927106125
0.000667341559408167	0.000734276233379262	0.000807493191017385	0.000887315606662538	0.00097404758699675	0.00106792048168202
0.0011690223186937	0.00127755094957879	0.00139360312584291	0.00151715623114644	0.00164806828130454	0.00178607792428712
0.00193080444021886	0.00208174774137919	0.00223828837220231	0.00239968750927717	0.0025650869613475	0.00273350916931178
0.00290385720622325	0.00307491477728992	0.00324535296148409	0.00341429569873658	0.00358028916659352	0.00374147158329064
0.00389610429712878	0.00404257178647385	0.00417938165975689	0.004305164655474	0.0044186746421864	0.00451878861852039
0.00460450671316738	0.00467495218488386	0.00472937142249142	0.00476713394487675	0.00478773240099164	0.00479078256985296
0.00477602336054269	0.00474302920891553	0.00469063262273986	0.00462009681356205	0.0045330153254704	0.00443094509174074
0.00431540643483648	0.00418788306640854	0.00404982208729542	0.00390263398752315	0.00374769264630533	0.00358633533204309
0.00341986270232512	0.00324953880392766	0.00307659107281449	0.00290221033413695	0.00272755080223392	0.00255373008063184
0.00238182916204468	0.00221289242837399	0.00204792765070885	0.00188790598932588	0.00173376199368926	0.00158639360245074
0.00144666214344958	0.00131539233371262	0.00119317616074217	0.0010795831448984	0.000974396021548132	0.000877436101210768
0.000788498795293509	0.00070735361609133	0.000633744176786993	0.000567388191451041	0.000507977475041801	0.00045517794340538
0.000408629613275672	0.000367946602274352	0.000332717128910878	0.00030250351258249	0.000276842173574214	0.000255243633058854
0.000237192513097004	0.000222277820593655	0.000210279647501919	0.000200874307234127	0.000193758505858917	0.000188651657956997
0.000185295886621137	0.000183456023456169	0.000182919608578995	0.000183496890618578	0.000185020826715945	0.00018734708252419
0.000190354032208472	0.000194136920429793	0.000198993874088685	0.000204636346183708	0.00021079021010174	0.00021722681814871
0.000223763001549585	0.00023026107044838	0.000236628813908158	0.000242819499911024	0.000248831875358126	0.000254710166069664
0.000260544076784876	0.000266428504040668	0.000272283994362521	0.000278095025420098	0.000283861470245171	0.000289583251035999
0.000295260339157327	0.000300892755140392	0.000306480568682923	0.000312023898649128	0.000317522913069713	0.000322977829141867
0.000328388913229271	0.000333756480862091	0.000339080896736984	0.000344362574717097	0.000349601977832062	0.000354799618278002
0.000359956303063471	0.000365173499698476	0.000370466505350955	0.000375753972830072	0.00038097746819242	0.000386101470742017
0.000391113373030308	0.000396023480856167	0.000400865013265893	0.000405694102553213	0.00041058979425928	0.000415654047172676
0.000421011733329405	0.000426810638012905	0.000433221459754036	0.000440437810331087	0.000448676214769773	0.000458176111343234
0.000469199851572043	0.000481579000707452	0.000494955834194134	0.000510874865073076	0.000530847152997249	0.00055623731280955
0.000588263514542801	0.000627997483419752	0.000676364499853079	0.000734143399445382	0.00080196657298919	0.000880319966466959
0.000969543081051069	0.00106982897310383	0.00118122425417746	0.00130362909101414	0.00143679720554595	0.00158033587489489
0.00173370593137291	0.00189635756989127	0.00206773933739788	0.00224320913893083	0.00241768402970391	0.00258653034194379
0.00274556368489004	0.00289104894479509	0.00301970028492429	0.00312868114555586	0.00321560424398089	0.00327853157450339
0.00331597440844023	0.00332689329412118	0.0033106980568889	0.00326724779909892	0.00319685090011968	0.00310029242116084
0.00298008197432655	0.00284062451741612	0.00268621854948631	0.00252090148682503	0.00234844966295127	0.00217237832861516
0.00199594165179791	0.00182213271771187	0.00165368352880049	0.00149306500473832	0.00134248698243105	0.00120388816293808
0.0010775628003257	0.000963834514731947	0.000863447622309181	0.000776558830042399	0.000702737235749227	0.000640964328079923
0.000589633986517373	0.000546552481377101	0.000508938473807253	0.000473423015788611	0.000436049550134588	0.000392273910491224
0.00033641119785587	0.000255110591837218	0.0001347809752699	-3.15592079297278e-05	-0.000244207743960532	-0.000496790321771216
-0.000771451952768215	-0.00102432367573811	-0.00120248256796152	-0.00124904840092216	-0.00110318364030692	-0.000702761028831643
-8.64527514315983e-07	0.00104700206966899	0.00244118008408088	0.00413061190157846	0.00601284097251345	0.00794013673984987
0.00969062431601309	0.0109977025356934	0.0116752765097197	0.0116242225810691	0.0108323840966224	0.00939043984117246
0.00752681457336388	0.00547449321070072	0.00343220721715161	0.00156443460314976	3.0471489776418e-07	-0.00119534109377379
-0.00201751700983668	-0.00248303031891783	-0.00262846171433558	-0.00251016529709968	-0.00220426857591133	-0.00180096442140807
-0.00136904841030648	-0.000961371318939425	-0.000613605731851084	-0.000343440877148486	-0.000150582626501523	-1.8406757692247e-05
6.85241863262065e-05	0.00012416122556775	0.000160519106149715	0.000186788561576118	0.000209336312737665	0.000231705067911753
0.000254874223503543	0.000280165091372952	0.000308364331782231	0.000339957780391739	0.000375407021899741	0.000415149390042413
0.000459597967593837	0.000509141586366008	0.000564144827208828	0.000624891422244978	0.00069144823639728	0.000764311457267061
0.000843953934101122	0.00093074187039339	0.00102493482388492	0.00112668570656389	0.00123604078466561	0.00135293967867252
0.00147721536331418	0.00160859416756727	0.00174669577465562	0.00189103322205017	0.00204101290146899	0.00219593455887728
0.00235499129448736	0.00251726956275869	0.00268174917239784	0.00284730328635853	0.00301282600741178	0.00317751613905899
0.00333966081632588	0.00349750846006218	0.00364941091030122	0.00379382342625994	0.00392930468633885	0.00405451678812209
0.00416822524837736	0.00426929900305599	0.00435671040729289	0.00442953523540658	0.00448695268089916	0.00452824535645633
0.00455279929394741	0.00456010394442528	0.00454975217812645	0.00452089134864336	0.00447274045712889	0.00440661920508593
0.0043239136224606	0.00422599165153658	0.00411420314693516	0.00398987987561525	0.00385433551687334	0.00370886566234352
0.00355474781599749	0.00339324139414456	0.00322558772543161	0.00305301005084314	0.00287671352370126	0.00269788520966567
0.00251769408673365	0.00233729104524012	0.00215780888785757	0.0019803623295961	0.00180604799780341	0.00163594443216481
0.00147111208470319	0.00131259331977906	0.00116141241409052	0.00101857555667327	0.000884636391460479	0.000759218766282067
0.000642166419203806	0.000533310428537816	0.000432462552647986	0.000339415229949976	0.000253941578911211	0.000175795398050891
0.000104711165939985	4.0404041201228e-05	-1.74301374908725e-05	-6.91148514100393e-05	-0.000114992901778225	-0.000155426409765614
-0.000190796816490618	-0.000221504883019884	-0.000247970690368284	-0.000270633639498923	-0.000289952451323136	-0.000306405166700488
-0.000320489146438773	-0.000332602193790564	-0.00034286661667741	-0.00035141676490793	-0.00035838642685039	-0.000363908208632784
-0.000368113534142837	-0.000371132645028003	-0.000373094600695467	-0.000374127278312142	-0.000374357372804672	-0.00037391039685943
-0.00037291068092252	-0.000371481373199773	-0.000369744439656754	-0.000367820664018755	-0.000365829647770798	-0.000363889810157635
-0.000362118352854789	-0.000360478788098226	-0.000358865523125137	-0.000357278578401866	-0.00035571793417205	-0.00035418353045661
-0.000352675267053759	-0.000351193003539	-0.000349736559265122	-0.000348305713362205	-0.000346900204737617	-0.000345519732076017
-0.000344163953839349	-0.00034283248826685	-0.000341524913375046	-0.000340240766957749	-0.000338979546586061	-0.000337740709608374
-0.000336523673150368	-0.000335327814115015	-0.00033415246918257	-0.000332996934810584	-0.000331860467233892	-0.000330733574880449
-0.000329608099009485	-0.000328494911479706	-0.000327396210035415	-0.000326304896801827	-0.00032520457828507	-0.000324069565372185
-0.000322864873331129	-0.000321546221810769	-0.000320060034840888	-0.00031834344083218	-0.000316324272576255	-0.000313866211314872
-0.000310797229210159	-0.000306979919568611	-0.000302196380193018	-0.000296146817686746	-0.000288449547453731	-0.000278640993698485
-0.00026617568942609	-0.000250426276442205	-0.000230683505353059	-0.000206156235565454	-0.000175971435286769	-0.000139541925788162
-9.59024694418104e-05	-4.35358642332895e-05	1.87895600233634e-05	9.20169914603647e-05	0.000176801136156184	0.000273508218135541
0.000382215979369409	0.000502713679775011	0.000634502097215826	0.000776793527501581	0.000928511784388261	0.00108840034006289
0.0012549889502798	0.00142448106329734	0.00159288127769688	0.00175639938424387	0.00191145036588786	0.00205465439776248
0.00218283684718547	0.00229302827365864	0.00238246442886792	0.0024485862566833	0.00248903989315888	0.00250167666653285
0.00248481033479801	0.00243930439155521	0.00236735441117748	0.00227135214193239	0.00215388095152173	0.00201771582708155
0.00186582337518215	0.00170136182182808	0.00152768101245814	0.00134832241194537	0.00116701910459706	0.000987695794154764
0.000814390872089048	0.000649422183394676	0.000494212681139014	0.00035008077060489	0.00021799412169071	9.85696689104504e-05
-7.9263886063341e-06	-0.000101578587114522	-0.000182822198253411	-0.000252443229046728	-0.000311578421902627	-0.000361715254613688
-0.000391922048705757	-0.000395820408608713	-0.000398909562251295	-0.00042179571490513	-0.000479488954681825	-0.000581403252532972
-0.000731356462250144	-0.000927570320464896	-0.00116267044664877	-0.00142368634311328	-0.00169205139500994	-0.00194360287033023
-0.00214858191990562	-0.00227140680030687	-0.00225157161103034	-0.00200642647066809	-0.00147532041746954	-0.000623008399963253
0.000560348723043083	0.00205918418246268	0.00383755004493939	0.00579430189193696	0.00767677935068552	0.00925620779344903
0.0103494247408056	0.0108188798616476	0.0105726349731813	0.00957915574031227	0.00799658589476914	0.00606547935777524
0.0040007807193106	0.00199040134653593	0.000195219383792618	-0.00126361985122216	-0.00234927705091941	-0.00306186448309137
-0.00342329053316317	-0.00347737057552514	-0.00328982697353289	-0.00294685619708832	-0.00252854896624282	-0.0021000380746618
-0.00171009309549155	-0.00138890255371993	-0.00114807392617632	-0.000980633641531691	-0.000866930434091924	-0.000793545882211663
-0.000747016236965274	-0.000716384930042008	-0.000693352578053216	-0.000672276982532343	-0.000650173129934936	-0.00062663155836345
-0.000600869651308114	-0.00057189313384451	-0.000539257623991001	-0.000502532429935926	-0.000461300550037609	-0.000415158672824351
-0.000363717176994433	-0.000306600131416115	-0.000243445295127637	-0.000173912268814747	-9.78336092432452e-05	-1.48746896783286e-05
7.53018575753689e-05	0.000172925121621237	0.000278115912970685	0.000390886763543149	0.000511141926666082	0.000638677377074962
0.00077318081091329	0.000914231645732589	0.0010613010204924	0.00121375179556029	0.00137083855271186	0.0015317075951307
0.00169539694740846	0.00186108175238018	0.00202762982311314	0.00219344028773559	0.00235695845205196	0.00251667728340911
0.00267113741069631	0.00281892712434527	0.00295868237633012	0.00308908678016741	0.00320887161091611	0.00331681580517764
0.00341174596109582	0.0034925363383569	0.00355810885818957	0.00360743310336493	0.00363954037556169	0.00365394334083113
0.00365066882982921	0.00362987899213894	0.00359185751273734	0.00353700961199543	0.00346586204567824	0.00337906310494484
0.00327738261634827	0.00316171194183561	0.00303306397874795	0.00289257315982037	0.00274149545318198	0.00258120836235589
0.00241321092625924	0.00223912371920316	0.00206068885089279	0.0018797699664273	0.0016981549005572	0.00151668207461513
0.00133659829139484	0.0011591400525359	0.000985424116602001	0.000816447499080928	0.000653087472384599	0.000496101565849046
0.000346127565734411	0.00020368351522496	6.91677144290687e-05	-5.7141279620771e-05	-0.000175084652967948	-0.000284623334731736
-0.000385837997107295	-0.000478929055365667	-0.000564093833475097	-0.000641335161230561	-0.000711089075486558	-0.000773817898619177
-0.000829971252592348	-0.000879986058957836	-0.000924286538855248	-0.000963284213012027	-0.000997377901743451	-0.00102695372495264
-0.00105238510213056	-0.00107403275235599	-0.00109224469429557	-0.00110735624620378	-0.00111969002592291	-0.00112955595088312
-0.0011372512381024	-0.00114306040418656	-0.00114725526532927	-0.00115009493731202	-0.00115172716088885	-0.00115189913346442
-0.00115076942495183	-0.00114854718864883	-0.00114542547817022	-0.0011415812474478	-0.00113717535073044	-0.00113235254258404
-0.00112724147789152	-0.00112195471185286	-0.00111658869998506	-0.00111122379812218	-0.00110592426241528	-0.00110073824933249
-0.00109569781565897	-0.00109081891849691	-0.00108610141526553	-0.00108152906370112	-0.00107706952185696	-0.00107267434810341
-0.00106827900112783	-0.00106380283993466	-0.00105915021795098	-0.00105428170325646	-0.00104925770954838	-0.00104414023402291
-0.0010389837919625	-0.00103383541673594	-0.00102873465979831	-0.00102371359069102	-0.00101879679704178	-0.00101400138456463
-0.00100933697705991	-0.00100480571641427	-0.00100040226260067	-0.0009961137936784	-0.000991920005793049	-0.000987793113176521
-0.000983697848147031	-0.000979591461109112	-0.000975423720553605	-0.000971136913057665	-0.000966665843284759	-0.000961937833984667
-0.000956872725993484	-0.000951382878233613	-0.000945373167713771	-0.000938740989528991	-0.000931376256860614	-0.000923161400976296
-0.000913971371230007	-0.000903664661962714	-0.000891856164562108	-0.000877890431005262	-0.000861071045547978	-0.000840672151087999
-0.000815938449165003	-0.000786085199960609	-0.000750298222298374	-0.000707733893643795	-0.000657519150104305	-0.000598751486429278
-0.000530498956010027	-0.000451800170879802	-0.000361664301713793	-0.000259183595813682	-0.000144230330561386	-1.71524291973368e-05
0.000121340358326362	0.000270164353479906	0.000427861949155789	0.000592601609668805	0.000762177870756039	0.000934011339576883
0.00110514869471302	0.00127226268616843	0.00143165213536941	0.00157924193516452	0.00171058304982464	0.00182184683753414
0.00191076475245463	0.00197477454073194	0.00201204390362329	0.00202148970515504	0.00200277797212268	0.00195632389409083
0.00188329182339326	0.00178559527513283	0.00166589692718158	0.00152760862018064	0.0013745376586062	0.00120999382337167
0.00103822263212096	0.000863175484184038	0.00068838530525336	0.000516966547383914	0.000351615188993202	0.000194608734861245
4.78062161305776e-05	-8.73518096937415e-05	-0.00021000201765157	-0.000321987862668507	-0.000422187167284176	-0.000508970240141981
-0.000581691100071138	-0.000640687476086673	-0.00068728080738943	-0.000723776243366058	-0.000753462643589025	-0.000780612577816607
-0.000810482325992897	-0.000849311878247796	-0.000904324934897021	-0.000983728906442098	-0.00109654194770798	-0.00125269129855407
-0.00145835681467078	-0.00170626042221198	-0.001974846969974	-0.00222828422939565	-0.0024164628945582	-0.00248346007580166
-0.00236109570264742	-0.00198260243271862	-0.00130214654954156	-0.00029485440149642	0.00104318759818275	0.00269815802848736
0.00459146052093064	0.00651694338009482	0.0082678778522531	0.0096506957256025	0.0104849893302637	0.0106036769295258
0.00993308154314772	0.00861867553264081	0.00684934465924751	0.00482443817345327	0.0027537688149866	0.000852453881489534
-0.000748124249473391	-0.00199074767101612	-0.00285009619826902	-0.00333572730190217	-0.00349091144820294	-0.00337429811447024
-0.00307449062421946	-0.00267541764607521	-0.00224530160613743	-0.00183665868798144	-0.00148629883265785	-0.00121525676561221
-0.00102198985357646	-0.00088870859454923	-0.000799097160096266	-0.000739400250408648	-0.000698423094302761	-0.000667531449220311
-0.000640651601228309	-0.000614153207010053	-0.000585994655005634	-0.000555443421197513	-0.000521939304972217	-0.000484950780137633
-0.000443974994923023	-0.000398537771979013	-0.000348193608377598	-0.000292525675612144	-0.000231145819597379	-0.000163694560669407
-8.98410935856936e-05	-9.28416516196962e-06	7.81281110549192e-05	0.000172656364430673	0.000274594392420333	0.000384118157516382
0.000501285787248735	0.000626037574184749	0.000758195975929214	0.000897465615124357	0.00104343327944984	0.00119556792162277
0.00135322065939769	0.00151562477556656	0.0016818957179588	0.00185103109944125	0.00202191069791821	0.00219329645633138
0.00236418533814813	0.00253340519278752	0.00269911082994393	0.00285955705917133	0.00301310621356097	0.00315822814974136
0.00329350024787827	0.00341760741167476	0.00352934206837113	0.00362760416874496	0.0037114011871111	0.00377984812132166
0.00383216749276602	0.00386768934637082	0.00388585125059998	0.00388619829745468	0.00386801361855414	0.00383062042557676
0.00377518072819386	0.003702960121558	0.00361522437379203	0.0035132394259891	0.00339827139221271	0.00327158655949663
0.003134451387845	0.00298813251023222	0.00283389673260305	0.00267301103387253	0.00250674256592603	0.00233635865361925
0.00216312679477817	0.0019883146601991	0.00181319009364869	0.00163902111186386	0.00146707590455188	0.00129862283439033
0.00113493043702707	0.000977267421080327	0.000826902668138608	0.000684803090163757	0.00055078593300937	0.000424907389242771
0.0003072227768832	0.000197743228717419	9.64356922997106e-05	3.22292995188545e-06	-8.20164812367252e-05	-0.000159448149409268
-0.000229281867941358	-0.000291771615441099	-0.00034721555574906	-0.000395956037938293	-0.000438379596314323	-0.000474916950415154
-0.000506043005011265	-0.000532276850105612	-0.000554181760933626	-0.000572360250927293	-0.0005868311883108	-0.00059776933660086
-0.000605722446250635	-0.000611182102129554	-0.000614583723523316	-0.000616306564133888	-0.000616673712079506	-0.000615952089894673
-0.00061435245453016	-0.000612029397353008	-0.000609081344146524	-0.000605550555110286	-0.000601423124860138	-0.000596628982428193
-0.000591041891262833	-0.000584479449228708	-0.000576703088606734	-0.000567657761267469	-0.000558443818091511	-0.000549244759892536
-0.000540060655959678	-0.000530891575728077	-0.000521737588778882	-0.000512598764839242	-0.000503475173782315	-0.000494366885627264
-0.000485273970539256	-0.000476196498829467	-0.000467134540955075	-0.000458088167519263	-0.000449057449271224	-0.00044004234277825
-0.000431014786218539	-0.000421967555109324	-0.000412919342067108	-0.000403885803563272	-0.000394879559924078	-0.000385910195330668
-0.000376984257819066	-0.000368105259280179	-0.000359273675459789	-0.000350486945958563	-0.000341739474232048	-0.000333022627590671
-0.000324324737199741	-0.000315631098079446	-0.000306923969104855	-0.000298182573005921	-0.000289383096367473	-0.000280498689629223
-0.000271499467085765	-0.000262352506886571	-0.000253021851035995	-0.000243468505393272	-0.000233713411424048	-0.000224604348717246
-0.000215847829107407	-0.000206706638882002	-0.000196454559646848	-0.00018437636832611	-0.000169767837162303	-0.00015193573371629
-0.00013019782086728	-0.000103882856812834	-7.23305950688574e-05	-3.48917844696051e-05	9.07183083232066e-06	6.01875113659672e-05
0.000119071522342035	0.000186329133652879	0.000262554619872498	0.000348331260256556	0.000444231338742354	0.000550816143948854
0.000668635969176671	0.000798230112408064	0.000940126876306951	0.00109451559924797	0.00125873856825133	0.00142974080839629
0.00160452922070022	0.00177999760979323	0.00195292668391814	0.00211998405493052	0.00227772423829865	0.00242258865310357
0.00255090562203904	0.00265889037141153	0.0027427649425608	0.00280032407710258	0.00283038968196306	0.00283235356575383
0.00280627010021596	0.00275285622021994	0.00267349142376575	0.00257021777198277	0.00244573988912989	0.00230342496259541
0.0021473027428971	0.00198194032823922	0.0018108290545659	0.00163772391390593	0.0014662355041996	0.00129948582176447
0.00114010826129537	0.000990247615864398	0.000851560076920912	0.000725213234291554	0.000611886076180229	0.000511768989168116
0.000424563758213661	0.000349607923044205	0.00028630968470839	0.000233730437827918	0.000190443514485446	0.000154534777987548
0.000123602622864725	9.462228297627e-05	6.17025228138163e-05	1.69406748180811e-05	-4.86219392417864e-05	-0.000144999878300283
-0.000283254237430797	-0.000471607219753011	-0.000705178212171315	-0.000966046676586685	-0.00122352782359417	-0.00143417261248292
-0.00154176775123615	-0.00147884736161878	-0.00118924840238832	-0.000603806402367154	0.000321348568531315	0.00159148833148926
0.00317328659878443	0.00499481897379017	0.00695737913924571	0.00882629451510175	0.0103208798260698	0.0112419120908447
0.0114724423359404	0.0109777955956904	0.00980557091224775	0.00809327501467551	0.00608556703980975	0.00401615016266184
0.00206908389020777	0.000378781641228287	-0.000969989253691155	-0.00193898684142972	-0.0025328398405984	-0.00279274196064182
-0.00277183379252665	-0.00253401151424166	-0.00215392689079773	-0.00171657767785448	-0.00129193596519399	-0.00091433149377232
-0.000604525322288924	-0.000370910486022444	-0.000209511996830699	-0.000103986843150685	-3.17532232769735e-05	1.75264895444144e-05
5.30067441250182e-05	8.18371058175427e-05	0.000109029932705383	0.000137460375602625	0.000167877199872647	0.000200687012754133
0.000236783125289245	0.000276595777942549	0.000320543482604083	0.000369033022589361	0.00042245945263937	0.000481206098920569
0.000545644559024895	0.00061610862564992	0.000692710820007716	0.000775865120169763	0.000865984691260426	0.000963375665143579
0.0010682371404226	0.00118066118244038	0.00130063282327931	0.00142803006176127	0.00156262386344769	0.00170407816063946
0.00185194985237701	0.00200568880444025	0.00216463784934861	0.00232803278636103	0.00249500238147594	0.00266456836743129
0.00283564837524833	0.00300751149931349	0.00317884897744572	0.00334790826974541	0.00351302219590315	0.00367260893519968
0.00382517202650596	0.00396930036828313	0.0041036682185825	0.00422703519504559	0.00433824627490409	0.00443623179497988
0.00452000745168503	0.00458867430102179	0.0046414187585826	0.00467751259955008	0.00469631295869706	0.00469720413986723
0.00467914957512745	0.00464269030409538	0.00458884813865466	0.00451866718770161	0.00443321385714521	0.00433357684990717
0.00422086716592184	0.00409621810213629	0.00396078525251025	0.00381574650801617	0.00366230205663914	0.00350167438337697
0.00333510827024014	0.00316387079625183	0.00298925133744788	0.00281256156687685	0.00263513545459995	0.0024583292676911
0.0022835215702369	0.00211211322333663	0.00194552738510227	0.00178520951065846	0.00163220464460329	0.0014864426636952
0.00134817735762198	0.00121763089360822	0.00109496918634686	0.000980301897999222	0.00087368243819501	0.000775107964032299
0.000684519380077543	0.000601801338365572	0.000526782238399591	0.000459234227151183	0.000398873199060306	0.000345358796035294
0.000298294407452859	0.000257227170158087	0.000221647968464445	0.000190991434153768	0.000164635946476275	0.000142164275662853
0.000123420612815021	0.000108032858801958	9.56494370324679e-05	8.59410662658155e-05	7.86007606117251e-05	7.33438295303795e-05
6.99078778324225e-05	6.8052805678957e-05	6.75608085815443e-05	6.8236377402206e-05	6.99062983534227e-05	7.24196529981364e-05
7.5647818249745e-05	7.948446637211e-05	8.38542407371851e-05	8.87578116383397e-05	9.41293373903251e-05	9.98897689401212e-05
0.000105965867493469	0.000112290204514873	0.000118801161727596	0.000125442931113663	0.000132165514913861	0.000138924725627739
0.000145682186013604	0.000152405329088529	0.000159067398128343	0.000165647446667641	0.000172130338499776	0.000178506747676865
0.000184773158509784	0.000190931865568174	0.00019699097368043	0.000202964397933716	0.000208871863673954	0.000214738906505826
0.000220596872292778	0.000226471367775717	0.000232325164577375	0.000238140678396845	0.000243908935911393	0.00024962397884518
0.000255282863969257	0.00026088566310157	0.000266435463106957	0.00027193836589715	0.000277403488430774	0.000282842962713346
0.000288271935797277	0.000293708569781872	0.000299174041813325	0.000304692544084729	0.000310291283836066	0.000316000483354213
0.000321918671296876	0.000328243870775793	0.000334982535216408	0.000342201816258761	0.000350046963917188	0.000358741326580318
0.000368586351011073	0.000379961582346671	0.000393324664098623	0.000409211338152733	0.000428235444769102	0.000451088922582119
0.000478541808600473	0.000511442238207144	0.000550716445159406	0.000597368761588828	0.000652481618001273	0.000716827790077297
0.000791008157716265	0.000876290824224582	0.000973535913285885	0.00108316660184499	0.00120516912010791	0.00133909275154184
0.00148404983287515	0.00163871575409742	0.00180132895845939	0.00196969094247301	0.0021411662559114	0.00231268250180888
0.00248073215506827	0.00264241316499413	0.00279383131647895	0.00293043694454325	0.00304835914679893	0.00314440578344923
0.00321606347728882	0.00326149761370372	0.00327955234067133	0.00326975056876045	0.00323229397113124	0.00316806298353524
0.0030786168043154	0.0029660400998865	0.00283201080235514	0.00268088451795383	0.00251732501324056	0.00234560247889998
0.00216959352974337	0.00199278120470867	0.00181825496686047	0.00164871070339001	0.00148645072561516	0.00133338376898046
0.00119102499305707	0.00106049598154282	0.000942524742262191	0.000837445707166293	0.000745199732332892	0.000664337406107539
0.000594248633601934	0.000535491501931332	0.000487395642723034	0.000448055826866947	0.00041433196451558	0.000381849105084049
0.000344997437250066	0.000296932288953952	0.000229574127398629	0.000134498211649372	-6.4688407857838e-07	-0.000185955668078497
-0.000418899275841347	-0.000684110063526013	-0.000953381607959291	-0.00118664629616706	-0.00133017793095451	-0.00131500195217223
-0.00108037349409712	-0.00057603545267787	0.000237781514465085	0.0013903423327484	0.00288137100272085	0.00463804129403798
0.00653911607963361	0.00842085049785151	0.0100769919524454	0.0112615605666416	0.0117824705907728	0.0115610640661552
0.0106232735087703	0.009101053067563	0.00719340301745759	0.00512123894424046	0.00308406311543378	0.00125058757202819
-0.000281574210759391	-0.00146124911978126	-0.00226891162821871	-0.00271668353445081	-0.00284833396205443	-0.00272544394505182
-0.00242359586078083	-0.00202504360640148	-0.00159625458554909	-0.00118784824448947	-0.00083459607211901	-0.000555517514842802
-0.000353519373471214	-0.000213517332594377	-0.000119306472075703	-5.71263575098885e-05	-1.56610402229174e-05	1.3960942727943e-05
3.81665685541444e-05	6.09383287358484e-05	8.42397632722408e-05	0.000109582359595331	0.000137561458036288	0.000168683018945199
0.000203425597198966	0.000242240342201301	0.000285550997882733	0.000333753902700595	0.000387217989639042	0.000446284786209034
0.000511268414448349	0.000582455590921573	0.000660105626720106	0.000744450427462162	0.000835694493292765	0.000934014918883754
0.00103956139343378	0.00115249056243724	0.00127386331473969	0.00140352478723851	0.00154062065346144	0.00168427674641757
0.00183359905859732	0.00198767374197249	0.00214556710799621	0.00230632562760295	0.00246897593120856	0.00263252480871021
0.00279595920948642	0.00295824624239708	0.00311833317578341	0.00327514743746797	0.00342759661475471	0.00357456845442887
0.0037149308627571	0.00384753190548734	0.00397119980784894	0.00408474295455253	0.00418694988979015	0.00427658931723515
0.00435241010004225	0.0044131412608475	0.00445749198176832	0.00448415160440348	0.0044921090707068	0.00448175614032317
0.00445371504972193	0.00440864986003263	0.00434727862782102	0.00427037340508912	0.00417876023927519	0.00407331917325374
0.00395498424533553	0.00382474348926755	0.00368363893423305	0.00353276660485151	0.00337327652117868	0.00320637269870654
0.00303331314836332	0.0028554098765135	0.0026740288849578	0.00249059017093318	0.00230656772711286	0.00212348954160629
0.0019429375979592	0.00176654787515352	0.00159563252705436	0.00143029738012658	0.00127107992181526	0.00111849422801039
0.000972977584321467	0.00083489048607751	0.000704516638327025	0.000582062955838034	0.000467659563098062	0.000361359794314141
0.000263140193412811	0.000172900514040115	9.04637195616065e-05	1.55759830623387e-05	-5.20933126531226e-05	-0.000112951575060704
-0.000167483001916833	-0.000216248581258425	-0.000259775134610261	-0.000298219094834693	-0.000331979016894839	-0.000361468150823844
-0.000387078525380011	-0.000409180948046796	-0.000428125005032814	-0.000444239061271834	-0.000457830260422785	-0.000469184524869746
-0.000478566555721959	-0.000486219832813817	-0.000492366614704872	-0.000497207938679831	-0.000500923620748557	-0.00050367225564607
-0.000505591216832547	-0.000506744729328902	-0.000507100577584489	-0.000506767468745964	-0.000505855075906865	-0.000504465094922486
-0.000502691244409886	-0.000500619265747885	-0.000498326923077059	-0.000495884003299749	-0.000493352316080052	-0.000490785693843833
-0.000488229991778708	-0.000485723087834062	-0.000483294882721036	-0.000480967299912531	-0.000478754285643213	-0.000476661808909502
-0.000474687861469586	-0.000472822457843407	-0.000471047635312672	-0.000469337453920846	-0.000467657996473156	-0.000465967368536588
-0.000464217021420909	-0.000462424982897462	-0.000460631951152476	-0.000458854591218715	-0.000457106202994928	-0.000455396721245842
-0.000453732715602163	-0.000452117390560578	-0.000450550585483754	-0.000449028774600339	-0.000447545067004958	-0.000446089206658218
-0.000444647572386707	-0.000443203177882992	-0.000441735671705618	-0.000440221337279112	-0.000438633092893982	-0.000436940491706714
-0.000435109721739774	-0.00043310360588161	-0.000430881601886647	-0.000428427975862151	-0.000425884256676309	-0.000423013579678005
-0.000419460565744464	-0.000414833809057787	-0.000408705877104947	-0.000400613310677792	-0.000390056623873044	-0.0003765003040923
-0.000359372812042032	-0.000338066581733584	-0.000311938020483178	-0.000280307508911907	-0.000242459400945739	-0.000197642023815517
-0.000145067678056958	-8.39126375106547e-05	-1.3317149322073e-05	6.76145660584493e-05	0.000159814314875695	0.000264249930069577
0.000381691277867689	0.000511329189006634	0.000651888710204236	0.000801865861280273	0.000959482271129822	0.00112268517772327
0.00128914742810631	0.00145626747839995	0.00162116939380048	0.00178070284857953	0.001931443126084	0.00206969111873613
0.00219147332803345	0.00229263085808165	0.00237051869682596	0.00242343754100663	0.00245009907702768	0.00244980624561103
0.0024224532417965	0.00236852551494181	0.00228909976872256	0.00218584396113229	0.00206101730448241	0.00191747026540222
0.00175864456483894	0.00158857317805768	0.00141187464414051	0.00123211645943903	0.00105214642380951	0.000875156224609233
0.000703891329113994	0.000540650984518101	0.000387288217934373	0.00024520983639414	0.000115376426847242	-1.69764383796622e-06
-0.000105944228874628	-0.000197741401557365	-0.000278926802959313	-0.000350178119577203	-0.000410545522620669	-0.000460388917382029
-0.000501392411606892	-0.000536564315494156	-0.000570237141696009	-0.000608067605317925	-0.000657036623918669	-0.000725449317510295
-0.000822935008558147	-0.000959495320262688	-0.00114198191925193	-0.00137124222702447	-0.00163507604372952	-0.00190778939711019
-0.00215019454250353	-0.0023104913112553	-0.00233316513439463	-0.00215038784026622	-0.00170587787255504	-0.000960690650029197
0.000106781433460025	0.00150081501688585	0.00320635271346276	0.00509721758990086	0.00699628803885822	0.00872130248411085
0.0100848593805528	0.010894417214196	0.0109673580185397	0.0102955793136408	0.00900363757107086	0.0072482029361344
0.00521651924402639	0.00312640401983193	0.00119624784523367	-0.000462514483327695	-0.00178081915716123	-0.00272535643661305
-0.00329933548666928	-0.00353919581279801	-0.00349620570811546	-0.0032532676918896	-0.00288825632537789	-0.00246781544736039
-0.00204735817413978	-0.00167106689954133	-0.0013705878193077	-0.0011484825850673	-0.00099020550391929	-0.000881931937190504
-0.000811001520378893	-0.000765918163153528	-0.000736350049354608	-0.000713189334080534	-0.000691329081259915	-0.000669375944056274
-0.000646133504951302	-0.000620585852623105	-0.000591897581946201	-0.000559413793991512	-0.000522660096026381	-0.000481342601514552
-0.000435342780129045	-0.000384432536010936	-0.000328084212124674	-0.000265812231299178	-0.000197203255023397	-0.0001219161834463
-3.96821553768861e-05	4.96954517158199e-05	0.000146341021702768	0.000250306699794883	0.000361572392543063	0.000480045767838181
0.000605562254911083	0.00073788504433259	0.000876705088013494	0.00102164109920457	0.00117239302628024	0.00132869429499654
0.00148935228681603	0.00165310536400488	0.001818694112029	0.001984861339554	0.0021503520784452	0.00231391358376763
0.00247429533378605	0.00263024902996492	0.0027805285969684	0.00292389018266039	0.00305909215810447	0.00318489511756396
0.00330006187850188	0.00340335748158096	0.00349354919066364	0.00356940649281208	0.00362970109828815	0.00367325523949278
0.00369962048367089	0.00370873417556152	0.00370061609336386	0.00367540884464416	0.00363337786633579	0.00357491142473916
0.0035005206155218	0.0034108393637183	0.00330662442373034	0.00318875537932668	0.00305823464364316	0.0029161874591827
0.00276386189781531	0.00260262886077809	0.0024339820786752	0.00225953811147789	0.0020810363485245	0.00190033900852045
0.00171877489388568	0.00153723872110624	0.00135704437349857	0.00117939177564971	0.00100536643016746	0.000835939417680466
0.000671967396838162	0.000514192604310791	0.0003632428547894	0.000219631540985845	8.37576336327833e-05	-4.4094318516319e-05
-0.00016375418868719	-0.000275166272084753	-0.000378389285893126	-0.000473596369275619	-0.000560878015729895	-0.000640256975989181
-0.000712175114417309	-0.000777073992591499	-0.000835383881293273	-0.000887523760508456	-0.000933901319427182	-0.000974912956443887
-0.00101094377915731	-0.00104236760437049	-0.00106954695809078	-0.00109283307552983	-0.00111256590110359	-0.00112907408843234
-0.00114267500034063	-0.00115367470885733	-0.00116236799521561	-0.00116903834985296	-0.00117395797241114	-0.00117738777173627
-0.00117957736587871	-0.00118058912711287	-0.00118019990647882	-0.0011785971471804	-0.00117597556630952	-0.00117251496575021
-0.00116838023217856	-0.00116372133706276	-0.00115867333666307	-0.00115335637203185	-0.00114787566901353	-0.00114232153824463
-0.00113676937515376	-0.0011312796599616	-0.00112589795768092	-0.00112065491811659	-0.00111556627586554	-0.0011106328503168
-0.00110584054565149	-0.00110116035084278	-0.00109654833965597	-0.00109194567064842	-0.00108727858716957	-0.00108245808372133
-0.00107741611098255	-0.00107220034689564	-0.0010668749686776	-0.00106149674919221	-0.00105611505695007	-0.00105077185610857
-0.00104550170647192	-0.00104033176349112	-0.00103528177826398	-0.00103036409753512	-0.00102558366369596	-0.00102093801478471
-0.00101641728448641	-0.00101200420213288	-0.00100767409270276	-0.00100339487682149	-0.000999127070761309	-0.000994823786441263
-0.000990430731427204	-0.000985886208931787	-0.000981121117814469	-0.000976058952581514	-0.000970615803385989	-0.000964700356027765
-0.000958213891953515	-0.000951050288256721	-0.000943096017677663	-0.00093423014860343	-0.000924324345067912	-0.000913213807349868
-0.000900422424704355	-0.000885275835806094	-0.000867073539870607	-0.000845091155776356	-0.00081858042206474	-0.000786769196940099
-0.000748861458269712	-0.000704037303583799	-0.000651452950075516	-0.000590240734600962	-0.000519509113679172	-0.000438342663492124
-0.000345802079884733	-0.000241042851407621	-0.000124005029531962	4.89082319157175e-06	0.000144883497375616	0.000294863708636925
0.000453374097596366	0.000618609229878926	0.000788415596113709	0.000960291611933932	0.00113138761797693	0.00129850587988417
0.0014581005883012	0.00160627785887772	0.00173879573226752	0.00185167605671102	0.0019427719130854	0.00200962023119798
0.00205037698963544	0.00206390730931006	0.00204978545345974	0.002008294827648	0.00194042797976397	0.00184788660002241
0.00173308152096366	0.00159913271745372	0.00144977034282451	0.00128813582873448	0.00111817936114938	0.000943845757610952
0.000768680438109365	0.000595829425083222	0.00042803934341956	0.000267657420453847	0.000116631485969983	-2.34900277996997e-05
-0.000151558086174437	-0.000267908483443358	-0.00037392694295289	-0.000467634176370719	-0.000547798551723748	-0.000614149618853413
-0.00066737810941568	-0.000709135936881045	-0.000742036196534534	-0.000769653165475703	-0.000796522302618637	-0.000828140248691954
-0.000870964826238798	-0.000932415039616847	-0.00102087107499831	-0.00114539702111251	-0.00131483735030127	-0.00153204792846165
-0.00178672692482884	-0.00205501677898397	-0.00229950420085413	-0.0024692201707124	-0.00250929993479403	-0.00235341570967167
-0.00193801943512263	-0.00122065714884612	-0.000179971455499751	0.00118429847330046	0.00285381532638167	0.00475213857482436
0.00667882099728872	0.00843127484741106	0.00982051092156594	0.0106711385588662	0.010821365641163	0.0101832702957826
0.00889107283056993	0.00713394228475526	0.00511211223780244	0.00303688259015293	0.00112271319873543	-0.0005015679349637
-0.00177527706279368	-0.00266992900136136	-0.0031904284429306	-0.00337506995542226	-0.00328712539067618	-0.00300145839815071
-0.00260683392671788	-0.00217561097715339	-0.00176254401683224	-0.00140478297972878	-0.00112187326641665	-0.000916811458524337
-0.000775917095094585	-0.000681877849848512	-0.000620024335494612	-0.00057833436573901	-0.000547432955285458	-0.00052059231983534
-0.000493731876087665	-0.000465418241739073	-0.000435873628459553	-0.000403423916777463	-0.000367483025053687	-0.000327613160164171
-0.000283391149367243	-0.000234408440303604	-0.000180271100996335	-0.000120599819850892	-5.50299056551096e-05	1.67887124208016e-05
9.51914848242524e-05	0.000180485443954028	0.000272751096566205	0.000372218877356545	0.000479107735645134	0.000593522156722913
0.000715452161851671	0.000844773308264053	0.000981246689163552	0.00112451893372452	0.00127412220709215	0.00142947421038249
0.00158987818068245	0.00175452289104977	0.00192248265051307	0.00209271730407181	0.00226407223269628	0.00243527835332766
0.00260495211887796	0.00277159551823003	0.0029335960762376	0.00308952451384904	0.00323842175580823	0.00337854480292991
0.00350825715745454	0.00362609113730468	0.00373074787608501	0.00382109732308229	0.0038961782432654	0.00395519821728534
0.00399753364147518	0.00402272972785012	0.00403050050410744	0.00402072881362656	0.00399346631546897	0.00394893348437829
0.00388751961078022	0.00380939151114781	0.00371476368468316	0.00360527154582958	0.00348256328140763	0.00334824084681371
0.00320385996602002	0.00305093013157461	0.00289091460460136	0.00272523041479995	0.00255524836044592	0.00238229300839061
0.00220764269406121	0.00203252952146071	0.00185813936316795	0.0016856118603376	0.00151604042270012	0.00135047222856185
0.00118990822480491	0.00103530312688728	0.000887565418842748	0.000747557353280938	0.0006159581499844	0.000492816958024998
0.000378052699859194	0.000271559843674037	0.000173205456392794	8.28292036749506e-05	2.43349916216884e-07	-7.47672417514816e-05
-0.000142445109459996	-0.00020306019260496	-0.000256909831845784	-0.000304318769105662	-0.000345639147571565	-0.000381250511694244
-0.000411559807188235	-0.000437001381031845	-0.00045803698146717	-0.000475155758000079	-0.000488874261400225	-0.00049973638591266
-0.000508183006069492	-0.000514383871756913	-0.000518487383833375	-0.00052064272265988	-0.00052099984809997	-0.000519709499519738
-0.000516923195787822	-0.000512793235275407	-0.000507472695856224	-0.000501115434906551	-0.000493876089305212	-0.000485910075433579
-0.000477373589175566	-0.00046842360591764	-0.00045921788054881	-0.000449914947460632	-0.00044067412054721	-0.000431653082249159
-0.000422764619776783	-0.000413890887617899	-0.00040503206789668	-0.000396188325177588	-0.000387359806465371	-0.000378546641205064
-0.00036974894128199	-0.000360966801021758	-0.00035220029719026	-0.00034344948899368	-0.000334714418078486	-0.000325995108531433
-0.000317291566879562	-0.000308603782090204	-0.00029993172557097	-0.000291275351169765	-0.000282634595174777	-0.000274009376314481
-0.000265399595757637	-0.000256805137113296	-0.000248225866430791	-0.000239618701378403	-0.000230913861228728	-0.000222176212514837
-0.000213459990575121	-0.000204802063084958	-0.000196221930056729	-0.00018772172383981	-0.00017928620912057	-0.00017088278292238
-0.000162461474605602	-0.000153954945867598	-0.000145278490742726	-0.000136330035602339	-0.000126990139154786	-0.000117121992445415
-0.000106571418856568	-9.51668741075845e-05	-8.27194462547998e-05	-6.90305717989187e-05	-5.472033274043e-05	-3.92907814686577e-05
-2.13891870185678e-05	2.38907077808048e-07	2.67496827913766e-05	5.92010475959848e-05	9.85526344684151e-05	0.00014566580188839
0.000201303633838568	0.000266130939804548	0.000340714254774864	0.000425521839240993	0.000520923679197345	0.000627191486141269
0.000744498697073052	0.000872920474495925	0.00101243370641604	0.00116291700634252	0.00132417585421301	0.00149470723825433
0.00167055071128841	0.00184769383836718	0.00202231726693975	0.00219079472685246	0.0023496930303488	0.00249577207206947
0.00262598482905239	0.00273747736073264	0.0028275888089425	0.00289385139791145	0.00293399043426617	0.00294592430703053
0.0029278092125549	0.00288021562983641	0.00280611372747289	0.00270858784762298	0.00259075344728583	0.00245575709830111
0.002306776487349	0.00214702041595022	0.00197972880046598	0.00180817267209801	0.00163565417688857	0.0014655065757204
0.00130109424431681	0.00114581267324157	0.00100201043867963	0.000869970177120539	0.000750547294789468	0.000644229237572482
0.000551111695711108	0.000470898603802343	0.000402902140798644	0.000346042730007938	0.000298849039093616	0.000259457980074537
0.000225614709325022	0.000194672627574864	0.000163768604972628	0.000128851762705498	7.63429946542216e-05	-6.09893531944961e-06
-0.000126993778782539	-0.000291039802730848	-0.000499113789588959	-0.000748376277667102	-0.00102154226066652	-0.00126886956536764
-0.00143530124244253	-0.00146513901709062	-0.00130204328903866	-0.000889033132540773	-0.000169864230516565	0.000885040325389647
0.00228239701999535	0.00397875987955356	0.00587120388221839	0.00779732495804505	0.00954119338050181	0.0108707705621719
0.011579715208258	0.0115568927480393	0.0107922016589045	0.00937657346635095	0.00750197274398525	0.00543930630054713
0.00339702402545377	0.00154200237865459	-7.21809257902106e-06	-0.00118402982067946	-0.00197375821778299	-0.00239429486054716
-0.00249517909390888	-0.00235503783246005	-0.00204792412119015	-0.00164317205972027	-0.00120539680230308	-0.00079449455782284
-0.000458071103985765	-0.000199844485408439	-1.07813722113981e-05	0.000119905368774963	0.000204923640774163	0.000258902117063619
0.000297414961740003	0.000328198108956925	0.00035513555905095	0.000381399716277263	0.000409258350275883	0.000440074596071667
0.000474306954074304	0.000511932249668557	0.000553609156869107	0.000599772989584554	0.000650828537465268	0.000707166073084778
0.000769161351939779	0.000837175612450127	0.000911555575958837	0.000992633446732089	0.00108064703884087	0.00117575303299379
0.00127822338983237	0.00138822063308504	0.00150579068000745	0.00163086284138251	0.00176324982152036	0.00190264771825841
0.00204863602296129	0.00220067762052089	0.00235811878935633	0.00252018920141399	0.00268600192216748	0.00285455341061766
0.00302472351929265	0.00319566899113961	0.00336625023050028	0.00353464819810545	0.00369913318631946	0.00385806795796097
0.00400990774630301	0.00415320025507295	0.00428658565845252	0.00440879660107779	0.00451865819803915	0.00461508803488138
0.00469709616760359	0.00476378512265922	0.00481434989695608	0.00484807795785632	0.00486434924317644	0.00486262618195836
0.00484171347003318	0.00480186147186308	0.0047442673230612	0.00467013374755726	0.00458066905759758	0.00447708715374506
0.00436060752487919	0.00423245524819606	0.00409386098920832	0.00394606100174523	0.00379029712795265	0.003627816798293
0.00345987303154531	0.00328772443480518	0.00311263520348482	0.00293587512131303	0.00275871956033516	0.00258244948091319
0.00240835143172568	0.00223771754976776	0.00207184556035116	0.00191203877710422	0.00175960610197183	0.0016153314742261
0.0014788846545197	0.00135043632382683	0.00123011970067333	0.00111800791817985	0.00101411402406181	0.000918390980629423
0.00083073166478771	0.00075096886803647	0.000678875296470299	0.000614163570778581	0.000556486226245492	0.000505435712750005
0.000460544394765877	0.000421284551361661	0.000387079690407926	0.000357593232806746	0.000332468794741578	0.000311289371342656
0.000293661512403512	0.000279215322380991	0.000267604460395238	0.000258506140229706	0.000251621130331149	0.000246673753809632
0.000243411888438519	0.000241606966654483	0.000241053975557501	0.000241571456910854	0.00024300150714113	0.00024520977733822
0.000248149014457117	0.000251891028325212	0.000256309994875027	0.000261277078352424	0.000266674481384578	0.000272395444979968
0.000278344248528383	0.000284436209800923	0.000290597684949996	0.000296766068509314	0.000302889793393903	0.000308928330900096
0.000314852190705534	0.000320642920869165	0.000326293107831251	0.000331806376413357	0.000337197389818358	0.000342491849630441
0.000347726495815096	0.000352949106719127	0.000358214036126142	0.000363487737199921	0.0003687351322805	0.000373944639223022
0.000379106977704682	0.00038421516922474	0.000389264537104517	0.00039425270648739	0.000399179604338799	0.000404047459446244
0.000408860802419284	0.000413626465689538	0.000418353583510688	0.000423053591958472	0.000427740228930693	0.000432429534147209
0.000437139849149941	0.000441891817302871	0.00044670838379204	0.000451614795625548	0.000456638601633556	0.000461844658930111
0.000467431659551305	0.000473437530893489	0.000479946847134892	0.000487124707133861	0.000495216734428866	0.000504549077238496
0.000515528408461459	0.000528641925676584	0.000544457351142821	0.00056362293179924	0.00058686743926503	0.000615000169839501
0.000648910944502084	0.000689318072157011	0.000736698617241839	0.000792761309177982	0.000858980588808463	0.00093646714355694
0.00102596790742771	0.00112786606100569	0.00124218103145644	0.00136856849252616	0.00150632036454166	0.00165436481441042
0.00181126625562051	0.00197522534824068	0.00214407899892027	0.00231580118296397	0.00248768546465123	0.00265460567351525
0.00281185130237832	0.00295525752702183	0.00308120520618616	0.00318662088157077	0.00326897677783414	0.00332629080259379
0.0033571265464263	0.00336059328286728	0.00333634596841138	0.00328458524251228	0.00320605732961063	0.00310200394101737
0.00297588705722406	0.00283198546657817	0.00267435812544507	0.00250684415820802	0.00233306285726815	0.0021564136830445
0.00198007626397399	0.00180701039651142	0.00163995604512948	0.00148143334231876	0.00133374258858773	0.00119830910769785
0.00107523554956275	0.000965292719879388	0.000868790796387087	0.000785534616282073	0.00071482367621746	0.000655452132303255
0.000605708800106357	0.000563377154650554	0.000525735330416527	0.000489556121341848	0.000451106980820982	0.000406279300087144
0.000345338057066192	0.000253092090348473	0.000119419888075137	-6.00985762313561e-05	-0.000284181843667239	-0.000545832069842598
-0.000820904341205406	-0.00105934799638893	-0.00120635766191599	-0.00120467092383575	-0.000994568327723709	-0.000514606719875239
0.000278364702314925	0.00141909532082118	0.00289971573176482	0.00465622815003275	0.00656850640927747	0.00846598232674604
0.0101209869324744	0.0112760389088724	0.0117622221014445	0.011507402161643	0.0105362265468681	0.00896617345452595
0.00702707405705839	0.00495584617125792	0.00294740591962383	0.00115465759644651	-0.000311390358074375	-0.00139710525280104
-0.00210967724758575	-0.00247636060504884	-0.00254048549548219	-0.00236145799684928	-0.00201476009478515	-0.00159121762757022
-0.00116417416800989	-0.000775224555216549	-0.000452239430283964	-0.000207457574683891	-3.74859102660424e-05	7.59288427297e-05
0.000149991557151343	0.000197315882354951	0.000228832329094618	0.000252728052564098	0.000274446852396804	0.000296689172665805
0.000320167533153235	0.00034621172458015	0.00037538730151954	0.000408173587903442	0.000445024974928838	0.000486370921057662
0.0005326159520168	0.000584139660798083	0.000641283451414966	0.000704103014822418	0.000773024074811699	0.000848568186964262
0.000931150196348433	0.00102107823751941	0.00111855373451925	0.00122367140087692	0.00133641923960821	0.00145667854321582
0.00158422389368931	0.00171872316250511	0.00185973751062653	0.00200672138850374	0.00215902253607379	0.00231588198276061
0.00247643404747498	0.00263970633861459	0.00280461975406396	0.00297006502359426	0.00313529614604465	0.00329866406693974
0.00345839647297507	0.00361281993793108	0.0037603599226731	0.00389954077515135	0.00402898573040094	0.00414741691054188
0.00425365532477905	0.00434662086940224	0.00442533232778614	0.0044889073703903	0.0045365625547592	0.00456761332552217
0.00458147401439347	0.00457765784017223	0.00455543643213177	0.00451391050913929	0.00445421029259744	0.00437762232837338
0.00428542767603187	0.00417890190883529	0.00405931511374361	0.0039279318914144	0.00378601135620285	0.00363480713616175
0.00347556737304147	0.00330953472229001	0.00313794635305298	0.00296203394817355	0.00278302370419255	0.00260213633134836
0.00242058705357701	0.00223958560851211	0.00206033624748487	0.00188403773552411	0.00171188335135626	0.00154506088740534
0.00138475264979299	0.00123213545833843	0.00108806988937118	0.000952297486358236	0.000824771925946746	0.000705449075910113
0.000594252788381044	0.000491074899851532	0.000395775231172869	0.000308181587555639	0.000228089758569719	0.000155263518144286
8.9434624567804e-05	3.03028204880357e-05	-2.24641670879655e-05	-6.92306267938458e-05	-0.000110392862903966	-0.000146379195333387
-0.000177649959637874	-0.000204697507013902	-0.000228046204298655	-0.000248252433970012	-0.00026585471351591	-0.000281089060439816
-0.000294078095680768	-0.000304951407405535	-0.000313845176215874	-0.000320902175148521	-0.000326271769675199	-0.000330109917702611
-0.000332579169572445	-0.000333848668061372	-0.000334094148381045	-0.000333497938178102	-0.000332248957534161	-0.000330542718965828
-0.000328581327424688	-0.00032657348029731	-0.000324734467405247	-0.00032320264277449	-0.000321735494534282	-0.000320294310595606
-0.000318878879085938	-0.00031748898386382	-0.00031612440451886	-0.000314784916371736	-0.00031347029047419	-0.000312180293609034
-0.000310914688290144	-0.000309673232762466	-0.000308455681002011	-0.000307261782715856	-0.00030609128334215	-0.000304943924050102
-0.000303819441739996	-0.000302717569043177	-0.000301638034322058	-0.000300580561670121	-0.000299543038668362	-0.000298488498819233
-0.000297425002040834	-0.000296377166730563	-0.000295362988806764	-0.000294393841708725	-0.000293474476396674	-0.000292603021351784
-0.000291770982576173	-0.0002909632435929	-0.000290158065445967	-0.000289327086700323	-0.000288435323441857	-0.000287441169277403
-0.000286296395334736	-0.000284946150262577	-0.000283328960230589	-0.000281376728929379	-0.000279014752966011	-0.000276276490724542
-0.000272978737947502	-0.000268695406297103	-0.000262959389909888	-0.000255262565396734	-0.000245055791842852	-0.000231748910807782
-0.000214710746325403	-0.000193269104903919	-0.000166710775525873	-0.000134281529648138	-9.51861212019217e-05	-4.85882865927617e-05
6.38925529947043e-06	7.06648031205692e-05	0.000145197673041996	0.000230988198760882	0.000329077731500025	0.000440119010059887
0.000563427961120327	0.000698227667855417	0.000843380028526961	0.000997364637053732	0.00115827878301147	0.00132383745163286
0.00149137332380759	0.00165783677608227	0.0018197958806605	0.00197343640540285	0.00211456181382684	0.00223899055006451
0.0023438945660442	0.00242614315142719	0.00248323007928679	0.00251339536439388	0.00251562526321696	0.00248965227392211
0.00243595513637297	0.00235575883213081	0.00225103458445447	0.00212449985830037	0.00197961836032252	0.00182037720463399
0.00164995589462915	0.00147252858224252	0.00129211241425299	0.0011122768237531	0.00093614353014895	0.00076638653916028
0.000605232142820428	0.00045445891947634	0.000315397733788572	0.000188931736731291	7.54754590966272e-05	-2.61041367239623e-05
-0.000115572501488088	-0.000192323643059335	-0.000256651536273131	-0.000309750122936742	-0.000353713311829278	-0.00039153497870169
-0.00042710896627677	-0.00046522908424915	-0.000511589109285305	-0.000572782785023551	-0.000655621572949076	-0.000775740757725422
-0.000945345404790812	-0.00116483993312088	-0.00142282584634645	-0.00169610173275351	-0.00195002147242675	-0.00213827332195839
-0.0021906329751043	-0.00204177986888496	-0.00163793817616179	-0.000936876805637109	9.2090598145792e-05	0.00146877542164483
0.00315646960178802	0.0050267371074282	0.0069208591110105	0.00865449146966891	0.0100176647252262	0.0107758100596291
0.0107722442829355	0.0100383659844827	0.00867613478564676	0.00684577711702556	0.00476578621843893	0.00270264445981141
0.000834316897320629	-0.00073953266866845	-0.00195379351320739	-0.00278185095252013	-0.00323558634400302	-0.00336502927027822
-0.00323323458544452	-0.00292453610328293	-0.00252354274751003	-0.0020981265824634	-0.00169942281310165	-0.00136182978500442
-0.00110320456233244	-0.000921242965681814	-0.000798173104460367	-0.000717587343805825	-0.000665740483897404	-0.000631549759955803
-0.000606594842243211	-0.000585117836063305	-0.000564009143636492	-0.000541539140133604	-0.000516650183319717	-0.000488739211056338
-0.000457241889252487	-0.000421632611864693	-0.000381424500896999	-0.000336169406400959	-0.00028545790647564	-0.000228919307267618
-0.000166221642970983	-9.70716758273355e-05	-2.12148961257891e-05	6.15644777970337e-05	0.000151443499556993	0.000248560494722443
0.000353015060814226	0.000464868067305667	0.000584141655622584	0.000710819239143284	0.000845484838271429	0.000988111057987587
0.00113749569178151	0.00129243433340895	0.00145172230696291	0.00161415466687366	0.00177852619790876	0.00194363141517303
0.00210826456410857	0.00227121962049475	0.00243129029044821	0.00258727001042285	0.00273795194720987	0.00288212899793771
0.0030185937900721	0.00314613868141605	0.00326355576010982	0.00336963684463095	0.00346317348379425	0.00354295695675182
0.00360777827299302	0.00365642817234446	0.00368769712497006	0.00370038640955454	0.00369405235629094	0.00366929864429392
0.00362682986436103	0.00356741064147206	0.00349186563478909	0.00340107953765644	0.00329599707760067	0.00317762301633061
0.00304702214973736	0.00290531930789425	0.00275369935505689	0.00259340718966312	0.00242574774433306	0.00225208598586907
0.00207384691525578	0.00189251556766007	0.00170963701243107	0.00152681635310017	0.00134571872738102	0.00116806930716952
0.000995438285268863	0.000828143680921404	0.000666792052058783	0.000512014006195641	0.000364348193460489	0.000224241306595706
9.20480809575402e-05	-3.19687054838857e-05	-0.000147638232144588	-0.000254881635826706	-0.000353712010718515	-0.000444234408394418
-0.000526645837814948	-0.000601235265326772	-0.000668383614662684	-0.000728563766941612	-0.00078234056066861	-0.000830148614730301
-0.000872212880004412	-0.000909005865671951	-0.000940981685011799	-0.000968571917286135	-0.000992185607740437	-0.00101220926760348
-0.00102900687408735	-0.00104291987038741	-0.00105426716568234	-0.00106334513513412	-0.00107042761988801	-0.0010757659270726
-0.00107958882979975	-0.00108210256716463	-0.00108349084424572	-0.00108391483210478	-0.00108351316778689	-0.00108234066724372
-0.00108042291870388	-0.00107786139408391	-0.00107475122497133	-0.00107118084666219	-0.00106723199816095	-0.00106297972218057
-0.00105849236514248	-0.00105383157717654	-0.00104905231212112	-0.00104420282752304	-0.00103932468463757	-0.00103445274842847
-0.00102961518756795	-0.00102483347443671	-0.00102012238512388	-0.00101548999942709	-0.00101093770085243	-0.00100646017661444
-0.00100204541763613	-0.000997674718549007	-0.000993322677693005	-0.000988957197116545	-0.000984539482576511	-0.000980027381430779
-0.000975429787806651	-0.000970785656951471	-0.000966125979667754	-0.000961474879781554	-0.000956849614142461	-0.000952260572623602
-0.00094771127812164	-0.000943198386556774	-0.000938711686872741	-0.000934234101036811	-0.000929741684039793	-0.000925203623896033
-0.000920582241643411	-0.000915832991343344	-0.000910904460080786	-0.000905738367964229	-0.000900269568125698	-0.000894426046720757
-0.000888128922928503	-0.000881295768394679	-0.000874479902595898	-0.00086751950344312	-0.000859541911586565	-0.000849696878484005
-0.000837156566400769	-0.000821115548409738	-0.000800790808391353	-0.000775421741033605	-0.000744270151832042	-0.000706620257089766
-0.000661778683917434	-0.000609074470233259	-0.000547859064763008	-0.000477506327040004	-0.000397412527405119	-0.00030699634700679
-0.000205698877801002	-9.29836225512937e-05	3.16635051712316e-05	0.000168734180987932	0.000318102787177259	0.000477201523344928
0.000643438649199792	0.000814085241755234	0.000986222571197507	0.00115674210088574	0.00132234548735194	0.00147954458030099
0.00162466142261063	0.00175382825033151	0.00186298768455105	0.0019488242863466	0.00200928372079431	0.002042674759344
0.00204804350081072	0.00202517337137471	0.00197458512458142	0.00189753684134153	0.00179602392993091	0.00167277912599065
0.00153127249252705	0.00137562314523488	0.00120928852472839	0.00103633789145232	0.000860797379115272	0.00068623772470271
0.00051577426847692	0.000352066953977037	0.000197320328019027	5.32835406956944e-05	-7.87496546233163e-05	-0.000197940901291527
-0.00030458727272498	-0.000398775531909165	-0.00047992117914433	-0.000548171627879778	-0.000604409368856422	-0.000650251970106795
-0.000688052076955049	-0.00072089741201695	-0.000752610775199883	-0.000787750043702851	-0.000831608172016473	-0.000888934383255311
-0.000974175346794494	-0.00110415586436449	-0.0012851641445566	-0.00151283712522631	-0.00177216047349336	-0.00203746858574169
-0.0022740046404884	-0.00242397230668987	-0.00241309825350593	-0.00217897201155878	-0.00167196258255671	-0.000855218439294138
0.000295332474348425	0.00179251845344236	0.00357944617185009	0.00549177227478932	0.00734785224721951	0.00895512716378692
0.0101101236888245	0.010598838620832	0.0102914954715283	0.009276781394466	0.00770456797329277	0.00576114978813713
0.00366924441560816	0.00167766870229983	-5.84574889104456e-05	-0.00145519883257128	-0.00246737583730903	-0.0030926649681696
-0.00336341681263136	-0.00333763391649805	-0.00310170372295265	-0.00273474434973324	-0.00230715042687348	-0.00188059309670264
-0.00150789189740142	-0.00121731954429763	-0.00100142651848581	-0.000848363583024905	-0.000745666887438669	-0.000680257967715665
-0.000638443746309266	-0.000606647684861594	-0.000578835603994908	-0.000552606013151679	-0.000525847786615391	-0.000496928688501588
-0.000464695372757873	-0.000428473383163902	-0.000388067153331391	-0.000343472606599234	-0.000294082910728604	-0.000239399495660967
-0.000178978908915017	-0.000112423766176349	-3.93827512974571e-05	4.04493837022635e-05	0.00012733181863652	0.000221477665152117
0.000323053966728959	0.000432181698680052	0.0005489357681515	0.000673601485251238	0.000806885162857351	0.000948047331268479
0.00109617668070589	0.00125033182719951	0.00140954131258789	0.00157280360451821	0.00173908709644633	0.00190733010763671
0.00207644088316247	0.00224529759390538	0.00241274833655582	0.00257761113361285	0.00273867393338414	0.00289469460998601
0.00304440096334342	0.00318649071918998	0.00331963152906793	0.00344246097032815	0.00355358654613017	0.00365158568544215
0.0037350057430409	0.00380236399951187	0.00385214766124913	0.00388321521160414	0.00389585736245273	0.00389033921347115
0.00386700621402555	0.00382630901686938	0.00376880347814337	0.00369515065737553	0.00360611681748116	0.00350257342476284
0.00338549714891046	0.00325596986300118	0.00311517864349943	0.00296441577025695	0.00280507872651277	0.00263867019889317
0.00246679807741176	0.00229117545546941	0.00211362062985428	0.00193605710074182	0.00176038877999637	0.00158733101138103
0.00141782553071163	0.00125289951183336	0.00109346363873539	0.00094031210555093	0.000794122616557195	0.000655456386175413
0.000524758138970823	0.000402356109652681	0.000288462043074253	0.00018317119423282	8.64623282696769e-05	-1.80227952987055e-06
-8.18768437365003e-05	-0.000154132068776881	-0.000219038206790848	-0.000276776727340367	-0.000327710767046188	-0.000372334425708545
-0.000411123606427958	-0.000444536015605232	-0.000473011162941456	-0.000496970361438007	-0.000516816727396544	-0.000532935180419013
-0.000545692443407645	-0.000555437042564957	-0.00056249930739375	-0.000567191370697108	-0.000569807168578406	-0.000570622440441298
-0.000569894728989727	-0.00056785006449732	-0.000564262548723517	-0.00055916975032187	-0.000552826564404063	-0.00054546726008107
-0.000537305480463153	-0.000528534242659867	-0.000519325937780053	-0.000509832330931846	-0.00050018456122267	-0.000490493141759236
-0.000480847959647547	-0.000471318275992896	-0.000461952725899866	-0.000452779318472329	-0.000443805436813448	-0.000435017838025674
-0.000426382653210751	-0.00041784538746971	-0.000409330919902873	-0.000400743503609852	-0.000391992200656793	-0.000383154067342957
-0.000374275894701304	-0.000365384442928568	-0.000356502815453715	-0.000347650458937942	-0.000338843163274675	-0.000330093061589575
-0.000321408630240528	-0.000312794688817656	-0.00030425240014331	-0.000295779270272071	-0.000287369148490749	-0.00027901222731839
-0.000270695042506268	-0.000262400473037886	-0.00025410774112898	-0.000245792412227516	-0.000237426395013692	-0.000228977941399937
-0.000220411646530906	-0.000211688448783491	-0.000202765629766813	-0.000193596814322222	-0.000184131970523299	-0.000174317409675858
-0.000164094984446652	-0.000153241100292267	-0.000141480827537234	-0.000128554315927805	-0.000114114443903375	-9.77268185964769e-05
-7.88697758327844e-05	-5.69343801311112e-05	-3.1224424703411e-05	-9.56431454777751e-07	3.4740349016556e-05	7.68239374192153e-05
0.000126339625768688	0.00018441997738732	0.000251736145911954	0.000329193237684551	0.000418115956401378	0.000519369074115011
0.000633356804587982	0.000760022803292766	0.000898850167411793	0.00104886143583744	0.00120861858917205	0.00137622304972788
0.00154931568152719	0.00172507679030214	0.00190022612349487	0.00207164503439902	0.00223560342868923	0.00238722622346956
0.00252226848896497	0.00263713690217972	0.00272888974689729	0.00279523691368045	0.00283453989987122	0.00284581180959088
0.00282871735373999	0.00278357284999834	0.00271131383602856	0.00261324630741359	0.00249304146481094	0.00235488871533508
0.00220279700268173	0.00204059480712788	0.00187193014553173	0.00170027057133274	0.00152890317455161	0.00136093458179028
0.00119929095623194	0.00104671799764101	0.000905628798625316	0.000776810400736794	0.000660936561236385	0.000558446038482467
0.00046935377272102	0.000393250886085626	0.000329304682597475	0.000276258648165361	0.000232432450585682	0.000195721939542436
0.000163599146607235	0.000133112285239285	0.000101006436812318	5.88303383869543e-05	-6.45521901487089e-06	-0.000105317386566203
-0.000245377669965982	-0.000431411929439035	-0.000665157296496286	-0.000931856230597231	-0.00119141828758249	-0.00139563355207213
-0.00148969499291202	-0.00141219846317384	-0.0010958838638273	-0.000489861926926664	0.000457623928240893	0.00176182613271664
0.00338472926298385	0.00523505004096782	0.00716970899634536	0.00899034591217626	0.01042102443608	0.0112506576177053
0.011359886810077	0.0107210816695962	0.00940009426922979	0.00760284601506508	0.00557377239634357	0.00352365500402016
0.00162913871748718	3.1386707117062e-05	-0.00119650987217595	-0.00204468490475349	-0.00252726082776783	-0.00268048272986449
-0.00256271835118221	-0.00225445808335297	-0.00184657188537172	-0.0014089317927794	-0.000997416014373159	-0.000648541403478267
-0.000379352202361136	-0.000187420042229321	-5.48876763458039e-05	3.29021210951624e-05	9.06107628719682e-05	0.00013026305404445
0.00016092503517212	0.00018870398231416	0.000216748407029424	0.000245766587351972	0.000277199427249891	0.000311731523378447
0.000349851403717764	0.000392024827616393	0.000438694785791304	0.000490281500327895	0.000547182424679982	0.000609772243669809
0.00067832255285125	0.000752951001772767	0.000834172015079209	0.000922435367192541	0.00101807819751741	0.00112132501044115
0.00123228767533376	0.00135096542654792	0.00147724486341899	0.00161089995026501	0.00175159201638669	0.00189886975606744
0.00205216922857332	0.00221081385815309	0.00237401443403818	0.00254086911044269	0.00271036340656341	0.00288137020657982
0.00305270384467121	0.00322360558340664	0.00339242896488097	0.00355733866793576	0.00371660752910069	0.00386861654259361
0.00401185486032055	0.00414491979187565	0.00426651680454125	0.0043754595232878	0.00447066973077394	0.00455117736734644
0.00461612053104025	0.00466474547757846	0.00469640662037231	0.00471056653052121	0.0047067959368127	0.00468429273652342
0.00464194704411061	0.00458110900879043	0.00450328147273141	0.00440994048720545	0.00430253531258784	0.00418248841835725
0.00405119548309573	0.00391002539448872	0.00376032024932504	0.0036033953534969	0.00344053922199988	0.00327301357893296
0.00310205335749848	0.00292886670000219	0.00275463495785321	0.00258051269156404	0.00240762767075056	0.00223708087413206
0.00206994648953119	0.00190727191387397	0.00175007775318984	0.0015993578226116	0.00145607914637543	0.00132118195782091
0.00119542245902156	0.00107835853310219	0.000969751173495569	0.000869454985066422	0.000777294686548103	0.000693065110542621
0.000616531203520623	0.000547428025821407	0.000485460751652913	0.000430304669091724	0.000381605180083071	0.000338977800440829
0.000302008159847516	0.000270252001854296	0.000243235183880978	0.000220453677216017	0.00020137356701651	0.000185592408776546
0.000172873404724566	0.000162877434751652	0.000155288395394533	0.000149813716755036	0.000146184362500085	0.000144154829861698
0.000143503149636989	0.00014403088618817	0.000145563137442545	0.000147948534892521	0.000151059324959117	0.000155215239166683
0.000160521696395029	0.000166624052233422	0.000173221438801329	0.000180066764748412	0.000186966715254531	0.000193781752029742
0.000200426113314299	0.000206867813878655	0.000213128645023458	0.000219284174579553	0.000225462879700404	0.000231668257282315
0.000237828935154094	0.000243944835475426	0.000250015911887154	0.000256042149511278	0.000262023564950956	0.000267960206290502
0.000273852153095392	0.000279699516412256	0.000285502438768883	0.00029126109417422	0.00029697568811837	0.0003026464575726
0.000308273670989327	0.000313857628302129	0.000319398660925744	0.000324897154017136	0.000330399006027139	0.000335911051857119
0.000341391769690075	0.000346813296970788	0.000352161430405809	0.000357435625963475	0.000362648998873895	0.000367828323628959
0.000373014033982335	0.000378260222949464	0.000383634642807572	0.000389218705095657	0.000395107480614498	0.000401409699426651
0.000408247750856449	0.000415757683490003	0.000424041623660046	0.000433094650762193	0.000443503527599721	0.000455965177383115
0.000471193036067465	0.000489917052352474	0.000512883687682449	0.000540855916246311	0.000574613224977584	0.000614951613554407
0.000662683594399523	0.000718638192680285	0.000783660946308657	0.000858613905941211	0.000944375634979123	0.00104184120956819
0.0011519222185988	0.0012752435474642	0.00141096154215911	0.00155759772645093	0.00171339497123877	0.00187631702804158
0.00204404852899815	0.00221399498686712	0.00238328279502699	0.00254875922747611	0.00270699243883266	0.00285427146433467
0.00298660621984003	0.00309972750182648	0.00318930353368602	0.00325313380092183	0.00328990665009688	0.003298796982998
0.00327961475432321	0.00323280497168172	0.00315944769559391	0.00306125803949138	0.00294058616971687	0.00280041730552435
0.00264437171907893	0.00247670473545695	0.00230229626594129	0.0021249930742229	0.00194790591006844	0.00177434084763894
0.0016071262555334	0.00144861279678881	0.00130067342888011	0.00116470340372023	0.00104162026766007	0.000931863861488507
0.000835396320432397	0.000751702074156558	0.000679767688403197	0.000617437569280448	0.000564596485737938	0.000520897549772379
0.000484326683955485	0.00045120262143398	0.000416176905929586	0.000372233891739032	0.000310690743734053	0.000221197437361382
9.20407580677563e-05	-8.4386316725909e-05	-0.000309533337488517	-0.000571363798987676	-0.000842560529407795	-0.00108052569035009
-0.00123079603484592	-0.00122763055018394	-0.0010052581962201	-0.000509550954069163	0.000301905822103872	0.00145906869342063
0.0029541561759425	0.0047163279770548	0.00662331035583165	0.00850236173627075	0.0101302727072934	0.0112504091167039
0.0116884810792487	0.0113723169789746	0.0103468421786644	0.00875559107275657	0.00680969132823305	0.00472827875066982
0.00272070355037807	0.000938216093726196	-0.000528560290103913	-0.00162806255412877	-0.00234745968232991	-0.00271265268965389
-0.00277152873185465	-0.00259469360045495	-0.00226537547786192	-0.0018556918201872	-0.00142663900828351	-0.00102809234774469
-0.00069829545021156	-0.000448748539497578	-0.0002674582021155	-0.000141487279539476	-5.82561478869698e-05	-5.54271791875005e-06
2.8517564961103e-05	5.49200742267247e-05	7.85343645447245e-05	0.00010132331871301	0.000125008948306659	0.000150937821429865
0.000180081062715928	0.000213034353327261	0.000250017930955392	0.00029109838708805	0.00033681781478012	0.00038762648106228
0.000443929123034106	0.000506093079768949	0.000574448292313931	0.000649287303689951	0.000730865258891678	0.00081939990488756
0.00091507159061981	0.00101802326700443	0.00112836430501972	0.00124616407454797	0.00137123959959866	0.00150327630731786
0.00164186960445974	0.00178652487738653	0.00193665749206856	0.00209159279408423	0.00225056610862002	0.0024127227404705
0.00257711797403833	0.00274271707333421	0.00290839528197698	0.00307293782319352	0.0032350398998188	0.00339330669429588
0.0035462533686759	0.00369230506461807	0.00382979690338969	0.00395707304323823	0.00407334354592266	0.00417734547118003
0.00426777505959732	0.00434351414603764	0.00440363015964016	0.00444737612382019	0.00447419065626909	0.00448369796895437
0.00447570786811961	0.00445021575428447	0.00440740262224476	0.00434763506107234	0.00427146525411519	0.0041796309789974
0.00407305560761913	0.00395284810615665	0.00382026604991509	0.00367604418545477	0.00352162792536991	0.0033587488980667
0.00318905953148743	0.00301413305311047	0.00283546348995029	0.00265446566855746	0.00247247521501864	0.00229074855495659
0.00211046291353015	0.00193271631543427	0.00175852758489998	0.00158883634569441	0.0014245030211208	0.00126630883401846
0.00111495580676282	0.000971066761265363	0.000835241491954469	0.00070782076848845	0.000588701682750394	0.000477745204775393
0.000374790359511238	0.000279654226818424	0.000192131941470141	0.000111996693152281	3.89997264634417e-05	-2.71296590850856e-05
-8.66841090693044e-05	-0.00013997821415252	-0.000187348510085338	-0.00022915347770566	-0.00026577354293869	-0.000297611076796929
-0.000325090395380181	-0.000348657759875548	-0.000368781376557429	-0.000385951396787526	-0.00040067791952794	-0.000413306818770398
-0.00042397010079907	-0.000432805454721659	-0.00043995031698003	-0.000445541871350216	-0.000449717048942412	-0.000452612528200981
-0.000454364734904449	-0.000455109842165509	-0.000454983770431018	-0.000454122187481998	-0.000452660508433636	-0.000450733895735286
-0.000448477259170466	-0.000446025255856857	-0.000443512290246308	-0.000441072514124833	-0.000438837655001346	-0.000436731309329788
-0.00043465429598793	-0.000432606536086354	-0.000430587924675667	-0.0004285983307465	-0.000426637597229514	-0.000424705540995395
-0.000422801952854852	-0.000420926597558625	-0.000419079213797479	-0.000417259514202204	-0.000415467185343618	-0.000413701887732564
-0.000411963255819912	-0.000410250897996558	-0.000408564396593425	-0.000406903307881463	-0.000405267162071645	-0.000403655463314974
-0.000402067689702478	-0.000400503293265211	-0.000398958743477705	-0.000397263289096875	-0.000395412186603887	-0.000393517027156025
-0.00039166328853517	-0.0003899103351478	-0.000388291418024995	-0.000386813674822429	-0.00038545812982038	-0.00038417969392372
-0.000382907164661921	-0.000381543226189053	-0.000379964449283786	-0.000378021291349387	-0.000375538096413722	-0.000372313095129256
-0.000368118404773051	-0.00036270002924677	-0.000355777859076672	-0.000347045671413616	-0.000336171130033058	-0.000322843933245105
-0.000306591243031142	-0.000286315133674718	-0.000260927810781089	-0.000229410059229138	-0.000190811243171384	-0.000144249306033965
-8.89107705166553e-05	-2.40507385928568e-05	5.1007108490404e-05	0.000136870510212467	0.000234078626779045	0.000343102039122222
0.00046434394117867	0.000598080171403365	0.00074298465313857	0.000896976325732661	0.00105779505294268	0.00122300162293431
0.00138997774828194	0.00155592606596857	0.00171787013738591	0.0018726544483343	0.00201694440902275	0.00214722635406893
0.0022598075424992	0.00235081615774853	0.00241654300244076	0.00245564414495045	0.00246742187707227	0.00245165069060368
0.00240868672620643	0.00233946777340653	0.00224551327059431	0.00212892430502437	0.00199238361281561	0.0018391555789512
0.00167308623727861	0.00149860327050961	0.0013196453746922	0.00113930289410802	0.000960989797051438	0.00078765835835223
0.000621798208400018	0.000465436333144243	0.00032013707409417	0.000187002128318886	6.66705484473001e-05	-4.06812573318466e-05
-0.00013533952527	-0.000218972613725851	-0.000292661820063385	-0.000355277980371382	-0.000406985954138004	-0.000449311049823649
-0.000485139024860946	-0.000518716085654762	-0.000555648887582198	-0.000602904534992587	-0.000668810581207499	-0.00076305502852074
-0.000896288648226463	-0.00107561762098055	-0.00130228980961342	-0.00156478355633199	-0.00183765643858539	-0.00208154526906489
-0.00224334832078563	-0.00226666958805179	-0.00208306807014822	-0.00163283061542078	-0.000875994206714479	0.000207654038626427
0.00161857686875852	0.00333883694681928	0.00524345779923017	0.00713867733067781	0.00883249587767881	0.0101351321016798
0.0108590229890576	0.01083278859058	0.0100643146734741	0.00869456548604933	0.00688980213373947	0.00483990749617868
0.00275838622720172	0.000854735581934045	-0.000768290104504185	-0.00205245044559696	-0.00296926908513943	-0.00352046165549114
-0.00373793577757605	-0.00368343007602035	-0.00342654780082678	-0.00304713152528501	-0.00261961559747621	-0.00220094062015681
-0.00183055345075856	-0.00153040720138848	-0.00130529477304495	-0.001146389647819	-0.00103887507435531	-0.000969216527369847
-0.000925720508192072	-0.000898534544764967	-0.000879647191645025	-0.000862888030002251	-0.000843927667620154	-0.000820277738895766
-0.000791290904839619	-0.000758160853075764	-0.00072373252890229	-0.000686749026521398	-0.000645423396126846	-0.000599345380657854
-0.000548129911472129	-0.00049141710834587	-0.000428872279473764	-0.000360185921468985	-0.000285073719363199	-0.000203276546606558
-0.000114560465067707	-1.87167250337733e-05	8.43814741311305e-05	0.000194716185798444	0.000312279844016243	0.00043696351357855
0.000568551846398234	0.000706723081507016	0.000851049045055468	0.00100099515031301	0.00115592039766791	0.00131507737462728
0.00147761225581711	0.00164256480298221	0.00180886836498623	0.00197534987781172	0.00214072986456003	0.00230362243545138
0.00246259001288619	0.00261673272612814	0.00276450479689761	0.00290423304645419	0.00303438662662427	0.00315357701980096
0.00326055803894413	0.00335422582758041	0.00343361885980314	0.00349791794027245	0.00354644620421521	0.00357866911742501
0.00359419447626223	0.00359277240765398	0.0035742953690941	0.00353879814864321	0.00348645786492867	0.00341692435128509
0.00333027743340651	0.00322811141383938	0.00311199332867534	0.00298344740386232	0.00284395505520452	0.00269495488836244
0.00253784269885287	0.00237397147204887	0.0022046513831798	0.0020311497973313	0.00185469126944528	0.00167645754431996
0.00149758755660984	0.00131917743082568	0.00114228048133456	0.000967907212359833	0.000797025317981119	0.000630559682134345
0.000469392378611724	0.000314362671061734	0.000166267012989156	2.58590477550541e-05	-0.000106158988941011	-0.000229585519280063
-0.000344637482192851	-0.000451505331592597	-0.000550395110845191	-0.000641528452769193	-0.000725142579635828	-0.000801490303168985
-0.000870840024545225	-0.000933475734393774	-0.000989697012796523	-0.00103981902928803	-0.00108417254285553	-0.00112310390193891
-0.00115697504443073	-0.00118616349767622	-0.00121106237847328	-0.00123208039307246	-0.00124964183717699	-0.00126418659594278
-0.00127617014397837	-0.00128603346017086	-0.00129397100643028	-0.00130012978238696	-0.00130466350483024	-0.00130772003833039
-0.00130944139523862	-0.00130996373568708	-0.00130941736758885	-0.00130792674663796	-0.00130561047630936	-0.00130258130785895
-0.00129894614032356	-0.00129480602052098	-0.0012902561430499	-0.00128538585028997	-0.00128027863240178	-0.00127501212732685
-0.00126965812078764	-0.00126428254628754	-0.00125894548511089	-0.00125370013671907	-0.00124849601485393	-0.00124328372109789
-0.00123806612746185	-0.00123284574201633	-0.00122762470889141	-0.00122240480827677	-0.0012171874564217	-0.00121197370563504
-0.00120676424428525	-0.00120155939680038	-0.00119635912366806	-0.00119116302143553	-0.00118597032270958	-0.00118077989615663
-0.00117559024650268	-0.00117039951453331	-0.0011652054770937	-0.00116000554708862	-0.00115479677348243	-0.00114957584129907
-0.00114433907162209	-0.00113908242159461	-0.00113380148441936	-0.00112849148935864	-0.00112314730173437	-0.00111776342292802
-0.00111233399038069	-0.00110673575304531	-0.00110090757933074	-0.00109492138252863	-0.00108879513970657	-0.0010824927647148
-0.00107592410818618	-0.00106894495753618	-0.00106135703696294	-0.00105290800744721	-0.00104329146675236	-0.00103214694942443
-0.00101905992679204	-0.00100356180696649	-0.000985129934841686	-0.000963187592094167	-0.000937147850091852	-0.000907121183337347
-0.00087182630934558	-0.000829599814079449	-0.000779027369909585	-0.000718943735614357	-0.000648432756379868	-0.000566827363799958
-0.000473709575876201	-0.000368910497017906	-0.000252510318042119	-0.000124838316173621	1.3527144955075e-05	0.000161758615303713
0.000318779558424311	0.000483264351461143	0.000653758040605358	0.000828173217264326	0.00100225013605148	0.00117179808964645
0.00133295623782169	0.00148219360744248	0.00161630909246693	0.001732431453946	0.00182801932002347	0.00190086118593593
0.00194907541401284	0.00197111023367647	0.00196574374144191	0.00193204581049501	0.00187045931122839	0.00178384375862651
0.001675285256961	0.00154788581434632	0.00140476334273975	0.00124905165794143	0.00108390047959432	0.000912475431184196
0.000737958040039701	0.000563545737332287	0.000392451858076246	0.000227905641128706	7.29700959823915e-05	-7.1143804741593e-05
-0.000203646181981266	-0.000323900892462944	-0.000431571948647243	-0.000526623518729087	-0.000609319926637707	-0.000680225652036635
-0.000740205330323712	-0.00079042375263108	-0.00083234586582519	-0.000867423383948264	-0.000896623066668351	-0.000926534777200081
-0.000964680231072919	-0.00101847968500802	-0.00109525193691825	-0.00120221432590814	-0.00134648273227395	-0.00153507157750362
-0.00177274179869436	-0.00204050019716077	-0.00230156946866679	-0.00251276110855287	-0.00262454555668738	-0.00258105219746663
-0.00232015098391437	-0.00179417021594244	-0.000952548789632588	0.00023306562827741	0.00174376100546417	0.00351336094401871
0.00542842468044642	0.00733292017994163	0.00901744399368599	0.0102312104331074	0.0108039439522562	0.0106560589931974
0.00979865998601072	0.00833063212847586	0.00644576335324365	0.00438499420745359	0.00234927787145421	0.000494838782653281
-0.00106682736448219	-0.00226875955638288	-0.00309542809960632	-0.00356848725195208	-0.00372617032202516	-0.0036225580023647
-0.00332757836944395	-0.002925660842483	-0.00248967309121753	-0.00207175795080855	-0.00170845176073597	-0.00141961783441767
-0.00120844645920955	-0.00106158441659416	-0.000961247623409401	-0.000894614153146048	-0.000849636839474278	-0.000816795412392041
-0.000789096498225053	-0.000762073619626811	-0.000733787195578584	-0.000704127582407001	-0.000671769949737462	-0.000636153754074044
-0.000596851694380012	-0.000553450246121419	-0.000505549661267098	-0.000452763968288671	-0.000394720972160542	-0.0003310622543599
-0.000261443172866716	-0.000185555400933142	-0.000103253179046369	-1.4184233409828e-05	8.1970485661339e-05	0.000185427668340718
0.000296301645290621	0.000414604387662083	0.000540245507094863	0.000673032255717447	0.000812669526147047	0.000958759851489595
0.00111080340533975	0.00126819800178091	0.00143023909538516	0.00159611978121336	0.00176493079481505	0.00193574944110762
0.00210778857289461	0.00227955038803066	0.00244948946797985	0.0026161126951938	0.00277797925311163	0.00293370062616004
0.00308194059975319	0.00322141526029283	0.0033508929951682	0.00346919449275608	0.00357519274242077	0.0036678130345141
0.00374603296037543	0.00380888241233166	0.00385544358369718	0.00388483401438409	0.00389659881617825	0.00389090922691168
0.0038680607196743	0.00382844852899003	0.00377256765081682	0.00370101284254664	0.00361447862300548	0.00351375927245333
0.00339974883258421	0.00327344110652614	0.00313592965884118	0.00298840781552538	0.00283216866400884	0.00266860505315564
0.00249920959326391	0.00232557465606576	0.00214939237472735	0.00197245464384883	0.00179642986724264	0.00162199025378332
0.00145020155915441	0.00128211481528712	0.00111867256721835	0.00096070887309066	0.000808949304152303	0.000664010944757206
0.000526402392364973	0.000396523757540888	0.000274666663955914	0.00016101424838669	5.56411607155388e-05	-4.14864360695455e-05
-0.000130510865874881	-0.000211682939501116	-0.000285361791207764	-0.000351721602912984	-0.000410981493292484	-0.000463600015008759
-0.000510021698432793	-0.000550677051644048	-0.000585982560430474	-0.0006163406882885	-0.000642139876423044	-0.000663754543747504
-0.000681545086883763	-0.000695857880162187	-0.000707025275621626	-0.000715365603009414	-0.000721183169781368	-0.000724768261101788
-0.00072639713984346	-0.000726332046587653	-0.000724821199624117	-0.000721984093996901	-0.000717501651797906	-0.00071156134531989
-0.00070440922818213	-0.000696271695763105	-0.000687355485200502	-0.000677847675391209	-0.000667915686991322	-0.000657707282416141
-0.000647350565840171	-0.000636953983197121	-0.000626606322179909	-0.000616376712240653	-0.00060631462459068	-0.00059644987220052
-0.000586792609799908	-0.000577333333877783	-0.000568042882682293	-0.000558872436220788	-0.000549753516259822	-0.000540597986325157
-0.000531299170517498	-0.000521879299731745	-0.00051242014150255	-0.000502944686391481	-0.00049347308850125	-0.000484022665475703
-0.00047460789849983	-0.000465240432299761	-0.000455929075142763	-0.000446679798837243	-0.000437495738732751	-0.000428377193719975
-0.000419321626230741	-0.000410323662238017	-0.000401375091255911	-0.000392464866339668	-0.000383579104085677	-0.000374701084631463
-0.000365811251655693	-0.000356887212378172	-0.000347903737559848	-0.000338832761502804	-0.000329643382050267	-0.000320301860586602
-0.000310771622037314	-0.000301013254869049	-0.000290984511089588	-0.000280640306247859	-0.000269873501803084	-0.000258413988950302
-0.000246085171732732	-0.000232645379398549	-0.000217774203911775	-0.000201072499952273	-0.00018206238491575	-0.000160187238913754
-0.000134811704773676	-0.000105221688038752	-7.0624356968057e-05	-3.01481425365119e-05	1.71572615651222e-05	7.23200722651202e-05
0.000135850593308657	0.000208707957523966	0.0002922194505795	0.00038731637127697	0.000494534031551344	0.000614011756470843
0.000745492884236951	0.000888324766184403	0.00104145876678119	0.00120345026362857	0.00137245864746105	0.00154624732214638
0.00172218370468559	0.00189737455753308	0.0020691919552828	0.00223323108349999	0.00238519734487925	0.00252132844951349
0.00263839441489401	0.00273369756591046	0.00280507253485084	0.0028508862614015	0.00287003799264717	0.0028619592830709
0.00282661399455413	0.00276425064334778	0.0026740888090929	0.00255999445979989	0.00242667938341355	0.00227852991655223
0.00211960694450784	0.00195364590124585	0.00178405676940527	0.00161392408029869	0.00144600691391223	0.00128273889890558
0.00112622821261199	0.000978257581038255	0.000840284278864729	0.000713440129445323	0.000598531504807503	0.000496039325652293
0.000406119061354266	0.00032860072996156	0.000261925022461669	0.000204560471451993	0.000157100513413652	0.000118803113596122
8.75171477463216e-05	5.96824021086217e-05	3.03295734248393e-05	-6.91973106576038e-06	-5.98529936264652e-05	-0.000137666786023114
-0.000250966769524096	-0.000410586904332736	-0.000617981798170877	-0.000865006636294143	-0.00113073044258042	-0.00138079430129371
-0.00156741135708418	-0.00163292724322573	-0.00151675967931794	-0.00115528704288373	-0.000502131460935631	0.000470682561258532
0.00177272814017567	0.00339530711188479	0.00524801241905288	0.00716894667189536	0.00898010238329164	0.0104882873159129
0.011485124482222	0.0117691562532832	0.011308988884822	0.0101906275744881	0.00854843649876288	0.00656475743950703
0.0044699097839608	0.00249658008764918	0.000767801992530736	-0.000631514840159733	-0.00165729941379644	-0.00230660045541638
-0.00260989982404094	-0.00261882980979318	-0.0024115491048932	-0.002061887430065	-0.00163789638532792	-0.00120184944999669
-0.00080981971755435	-0.000492176781972826	-0.000247302441803755	-6.85019396264314e-05	5.39626907213669e-05	0.000132872624143374
0.00018405224428484	0.000222245381746687	0.000252731232393355	0.000279655404650986	0.000306187679338425	0.000334506657644828
0.000365799761129662	0.000400266512918215	0.000438068425924343	0.000479846677893839	0.000526000407873929	0.000576916671380706
0.000632970440399125	0.000694524603383016	0.000761929965255064	0.000835525247406828	0.000915637087698729	0.00100246336191494
0.00109619118328549	0.00119710607086503	0.00130538499061375	0.00142109546346879	0.00154419556534419	0.00167453392713093
0.00181184973469691	0.00195577272888696	0.00210582320552284	0.0022614120154032	0.00242184056430366	0.00258630081297674
0.00275387527715189	0.00292353702753549	0.00309421204839927	0.00326522148711369	0.00343501315123754	0.00360186871645244
0.00376415814330811	0.00392033967722238	0.00406895984848118	0.00420865347223853	0.00433814364851657	0.00445624176220552
0.00456184748306372	0.00465394876571758	0.00473162184966164	0.00479403125925852	0.00484042980373896	0.00487015857720178
0.00488264695861392	0.00487734774391215	0.00485310275280443	0.00481048791410619	0.00475064918576231	0.00467473870972605
0.00458391481195907	0.00447934200243142	0.00436219097512157	0.00423363860801635	0.00409486796311102	0.00394706828640921
0.00379143500792296	0.00362916974167269	0.00346148028568725	0.00328958062200385	0.00311469091666812	0.00293803751973406
0.00276085296526409	0.00258437597132902	0.00240985144000805	0.00223853045738879	0.00207167029356721	0.00191053440264772
0.00175639242274311	0.00161019483622896	0.00147164139726282	0.00134087422304892	0.00121804875252612	0.00110326173322294
0.0009965512212576	0.000897896581337979	0.000807218486761643	0.000724378919415828	0.000649181169777454	0.000581369836913113
0.000520630828479073	0.000466591360721283	0.000418819958475369	0.000376826455166627	0.000340061992810038	0.000308117940043861
0.000280700240094952	0.000257394360010377	0.000237808005543527	0.000221571138741846	0.00020833597794683	0.000197776997794029
0.000189590929213048	0.000183496759427546	0.000179235731955235	0.000176571346607882	0.000175289359491307	0.000175197783005384
0.00017612688584404	0.000177929192995258	0.000180496357644526	0.000183932660223289	0.000188160959645389	0.000193039446827842
0.000198437878619811	0.0002042375778026	0.000210331433089657	0.000216623899126579	0.000223030996491105	0.000229480311693117
0.000235910997174644	0.000242273771309859	0.000248530918405078	0.000254656288698765	0.000260635298361525	0.000266464929496108
0.00027215373013741	0.000277721814252472	0.000283200861740477	0.000288634118432755	0.000294076396092779	0.000299590804104832
0.000305185423674589	0.00031081577242503	0.000316441077582725	0.00032202636207674	0.000327542444538633	0.00033296593930246
0.000338279256404772	0.000343470601584611	0.000348533976283519	0.00035346917764553	0.000358281798517172	0.00036298322744747
0.000367590648687944	0.000372127042192606	0.000376621183617969	0.000381107644323032	0.000385626791369297	0.000390224787520757
0.0003949535912439	0.000399870956707711	0.000405040433783667	0.000410531368045742	0.000416418900770403	0.000422783968936616
0.000429713305225835	0.000437299006656079	0.000445676236800522	0.000455258641152501	0.000466573008233174	0.00048018693302139
0.000496708816953682	0.00051678786792427	0.000541114100285063	0.000570418334845652	0.000605472198873316	0.000647088126093022
0.000696119356687422	0.000753459937296858	0.000820044721019352	0.000896849367410619	0.000984890342484055	0.00108522096784555
0.00119827242148958	0.00132346612678445	0.00145989033832049	0.00160634172088093	0.00176132534944188	0.00192305470917232
0.00208945169543413	0.00225814661378207	0.00242647817996379	0.00259149351991982	0.00274994816978358	0.00289830607588136
0.00303273959473237	0.00314912949304866	0.0032430655033189	0.00331148398673305	0.00335352783361233	0.00336843036413702
0.00335597682121233	0.00331650437046841	0.00325090210026031	0.00316061102166799	0.00304762406849635	0.00291448609727521
0.00276429388725929	0.00260069614042825	0.00242789348148667	0.00225062922120063	0.00207251633927448	0.00189624761187786
0.00172472252999917	0.00156040849435088	0.00140534081536958	0.00126112271321591	0.00112892531777463	0.00100948766865456
0.000903116715188622	0.000809687316433815	0.000728642241171231	0.000658992167906045	0.000598956039351809	0.000547521210917992
0.000504349160433594	0.000467531575917373	0.000433556253358132	0.000397307096714725	0.000352064117916052	0.000289503436861063
0.000199697281418753	7.12112359495232e-05	-0.000103546315809661	-0.000325843619001156	-0.000585324544074866	-0.000857481334924055
-0.00110365460888534	-0.00127214120033393	-0.0013046592145532	-0.00113456719300814	-0.000706282877629627	2.18248189313319e-05
0.00107743581330355	0.00247316483732083	0.00416444008288347	0.00603789557075085	0.00794285854779914	0.00969241517668957
0.0110634105358685	0.0118177131299458	0.0118490598289226	0.0111642816093893	0.00984290118930536	0.00803714425929082
0.00597193948262629	0.00390866955234294	0.00200673150115532	0.000377601668260176	-0.00090554972366489	-0.00180842388319447
-0.0023355934501553	-0.0025305024956263	-0.00245543695212545	-0.00218334941694816	-0.0017998276606394	-0.00137476215890936
-0.000962232791222455	-0.000600508840797372	-0.000312061373808533	-0.000102633317936536	4.20883279962131e-05	0.000138914410036451
0.00020213651244345	0.000243526957689012	0.000272338806457473	0.000295305857645705	0.000316642648363108	0.000338762080679612
0.000362956081398135	0.000389770704378183	0.000419725348676477	0.00045331304274398	0.000491000444425885	0.000533227840961625
0.000580409148984866	0.000632931914523514	0.000691157312999709	0.000755420149229825	0.000826028857424477	0.00090321231441696
0.000987079744736685	0.00107796836256988	0.00117613524451916	0.00128172571401263	0.00139477334130393	0.00151519994347221
0.00164281558442213	0.00177731857488387	0.00191829547241312	0.00206522108139108	0.00221745845302449	0.00237425888534557
0.00253476192321207	0.00269799535830728	0.00286287522913995	0.0030282058210444	0.00319267966618043	0.00335488953194873
0.00351396730388424	0.00366847650660621	0.00381661441139613	0.00395671520235871	0.00408724997642182	0.00420682674333655
0.00431419042567722	0.00440822285884132	0.00448794279104954	0.00455250588334581	0.00460120470959722	0.00463346875649409
0.00464886442354994	0.00464709502310148	0.00462800078030863	0.00459155883315451	0.00453779922883302	0.00446552677566293
0.00437565917187648	0.00426995640242538	0.00415012121815111	0.0040177991357849	0.00387457843794778	0.00372199017315052
0.00356150815579369	0.0033945489661676	0.00322247195045235	0.00304657922071782	0.00286811565492362	0.00268826889691918
0.00250816935644367	0.00232889020912604	0.00215144739648501	0.00197679962592906	0.00180584837075645	0.00163943787015522
0.00147835512920317	0.00132332991886786	0.00117503477600664	0.00103408500336662	0.000901038669584678	0.000776396609187476
0.000660586462518409	0.000553520615411844	0.000454803509967048	0.00036407845552273	0.000280988470033929	0.000205176280072014
0.000136284320824678	7.39547360959497e-05	1.78293783061823e-05	-3.245019150794e-05	-7.72427036934059e-05	-0.000116907179980874
-0.000151802933484672	-0.000182289568702803	-0.000208726981516936	-0.000231475359192415	-0.000250895180378254	-0.000267347215107137
-0.000281192524795418	-0.000292792462243128	-0.00030250867163396	-0.000310696178286964	-0.000317549058618709	-0.000323181015931833
-0.000327715547388812	-0.000331269879609357	-0.00033395496867041	-0.000335875500106142	-0.000337129888907958	-0.000337810279524494
-0.000338002545861618	-0.000337786291282425	-0.000337234848607248	-0.000336415280113647	-0.000335388377536416	-0.000334208662067576
-0.000332924384356386	-0.000331577524509331	-0.000330203792090129	-0.000328832626119731	-0.000327487195076318	-0.000326184396895303
-0.000324929885993767	-0.000323669700864944	-0.000322399435292083	-0.000321132983323359	-0.000319882494184163	-0.000318658372277114
-0.000317469277182048	-0.000316322123656027	-0.000315222081633328	-0.000314172576225458	-0.000313175287721136	-0.00031223015158631
-0.000311335358464147	-0.000310487354175034	-0.000309680839716582	-0.000308908771263621	-0.000308162360168205	-0.000307431072959609
-0.000306702631344327	-0.000305963012206078	-0.0003051964476058	-0.000304385424781654	-0.000303510686149021	-0.000302551229300504
-0.00030148430700593	-0.000300285427212345	-0.000298928353044015	-0.000297385102802431	-0.000295581063729587	-0.000293297183795195
-0.00029044995049054	-0.000286900757596361	-0.000282431951093722	-0.000276746829164016	-0.000269469642188963	-0.000260145592750611
-0.000248240835631337	-0.000233142477813846	-0.000214158578481168	-0.000190518149016665	-0.000161371153004023	-0.000125859698445072
-8.35847894458819e-05	-3.31142456638467e-05	2.69884541523169e-05	9.78349265302564e-05	0.00018021188327398	0.00027458113146386
0.000381079573456634	0.000499519206885399	0.000629387124659621	0.000769845514965122	0.000919731661264092	0.00107755794229509
0.00124152803957903	0.00141060170782047	0.0015811025356545	0.00174818370804123	0.00190744592057135	0.00205493737946613
0.00218715380157738	0.00230103841438751	0.00239398195600951	0.00246382267518693	0.00250884633129389	0.00252778619433509
0.00251982304494579	0.00248458517439186	0.0024221483845697	0.00233245338855636	0.00221681494000595	0.00208011443211342
0.00192704696204519	0.00176195607093583	0.00158883374388808	0.00141132040997286	0.00123270494222924	0.00105592465766447
0.00088356531725395	0.00071786112594125	0.00056069473263811	0.000413597230224432	0.000277748155548287	0.000153975489425906
4.2755656641692e-05	-5.57864740517966e-05	-0.000141877589933823	-0.000216254968124857	-0.000280167819331603	-0.000334100468192042
-0.000379410400492816	-0.000418515266890734	-0.00045489288291277	-0.000493081228956072	-0.000538636260947984	-0.000595200376119546
-0.000678679484539581	-0.000804462418708792	-0.000979044805827625	-0.00120002906779626	-0.00145612442121463	-0.00172714687738239
-0.00198375107242224	-0.00217366249410603	-0.00223024295171314	-0.00209357511471345	-0.00171120522905251	-0.00103814311715151
-3.68388543635229e-05	0.00131192219968182	0.00295908551236945	0.00480525223196934	0.00671084080344829	0.00849608696847001
0.0099410437653951	0.0107962861207932	0.0109268024141565	0.0103302768742284	0.0090779334783396	0.00731446807557553
0.00525804838677636	0.00317969731783818	0.0012530336980349	-0.00040473916450012	-0.00171530087490701	-0.0026427259932104
-0.00319348403431945	-0.0034098806217059	-0.00334666010354753	-0.00308894369592968	-0.00271483665704905	-0.00229138917342245
-0.00187459635988679	-0.00150939825959905	-0.00122478628991489	-0.00101588676645503	-0.000868577894448496	-0.000769514697119672
-0.000706135263822109	-0.000666660750038502	-0.000640095377380699	-0.000617480935335412	-0.000596063477544591	-0.000574305262903028
-0.000550883943511696	-0.000524729481237927	-0.000495024147715417	-0.000461202524344219	-0.00042295150229075	-0.000380192975782521
-0.000332629270951915	-0.000279715311497594	-0.000220976950878952	-0.000156003120315228	-8.44458287855099e-05	-6.02016302873487e-06
7.94957124563117e-05	0.000172260555410996	0.000272370045816838	0.000379856785895505	0.000494690300108819	0.000616777035158753
0.000745960359987429	0.000882033382928184	0.00102542476800033	0.00117558004946503	0.0013312745270807	0.00149128389208067
0.00165438422717318	0.00181935200654136	0.00198496409584328	0.0021499977522119	0.00231323062425509	0.00247344075205563
0.00262940656717121	0.00277990689263443	0.00292372094295279	0.00305962832410873	0.00318640903355955	0.0033028434602375
0.00340771238454971	0.00349979697837825	0.00357787880508007	0.00364073981948705	0.00368716236790596	0.00371592992312918
0.00372635717751679	0.00371873667234486	0.00369346118268454	0.00365101166518573	0.00359195725807708	0.00351695528116598
0.00342675123583857	0.00332217880505974	0.00320415985337312	0.00307370442690108	0.00293191075334474	0.00277996524198397
0.00261914248367738	0.00245080525086233	0.00227640449755492	0.00209747935935	0.00191565715342115	0.00173265337852073
0.00155027171497981	0.00137029143999094	0.00119336947190778	0.00102035090418821	0.00085216521777817	0.000689635160435345
0.00053347674672919	0.000384299258040915	0.00024260524256349	0.000108790515301644	-1.68558419281367e-05	-0.000134151480497605
-0.000243020784966755	-0.000343494873083823	-0.000435711595785285	-0.000519915537195857	-0.000596458014628499	-0.000665796530609054
-0.00072817614833976	-0.000783861408821346	-0.000833334951054228	-0.00087706096192899	-0.000915485176226381	-0.000949034876617317
-0.00097811889366288	-0.00100312760581432	-0.00102443293941305	-0.00104238836869065	-0.00105732891576887	-0.00106957115065963
-0.00107941319126499	-0.00108713470337722	-0.00109299690067873	-0.00109724254474208	-0.00110009594503004	-0.0011017629588955
-0.00110236992423184	-0.00110178970472748	-0.00110015417758297	-0.00109762542299944	-0.00109435360124719	-0.0010904769526657
-0.00108612179766365	-0.00108140253671892	-0.00107642165037855	-0.00107126969925879	-0.00106602532404505	-0.00106075524549195
-0.00105551426442329	-0.00105034526173206	-0.00104527919838043	-0.00104033511539977	-0.00103552013389061	-0.00103082945502269
-0.00102624636003494	-0.00102174221023547	-0.00101727644700156	-0.0010127965917797	-0.00100823824608557	-0.0010035410104397
-0.000998757203391396	-0.000993926172348782	-0.000989072901751073	-0.000984218207591144	-0.000979378737415531	-0.000974566970324432
-0.000969791216971703	-0.000965055619564865	-0.000960360151865096	-0.000955700619187235	-0.000951068658399783	-0.000946451737924899
-0.000941833157738406	-0.000937192049369785	-0.000932503375902177	-0.000927737931972387	-0.000922862343770875	-0.000917839069041769
-0.00091262639708285	-0.000907178448745565	-0.000901445176435017	-0.000895372364109976	-0.000888901627282865	-0.000881999782452061
-0.000874520888238776	-0.00086609689857997	-0.000856307624249624	-0.000844685160999172	-0.000830713889557503	-0.000813830475630959
-0.000793423869903337	-0.000768835308035891	-0.000739358310667325	-0.000704238683413799	-0.00066267451686893	-0.000613816186603782
-0.000556766353166884	-0.000490579962084211	-0.000414264243859194	-0.000326778713972722	-0.000227036614885047	-0.000114708035385398
9.76909274027105e-06	0.000145893133633749	0.000292747534103857	0.000449000823626459	0.000612906614344445	0.000782303601067748
0.000954615561273335	0.00112685135510521	0.00129560492537441	0.001457055297559	0.00160697458545849	0.00174196462001061
0.00185864665010722	0.00195356219082422	0.00202400054008435	0.00206799877865725	0.00208434177015943	0.00207256216105428
0.00203294038065205	0.00196650464110987	0.00187503093743175	0.00176104304746858	0.00162779841020296	0.00147831266139285
0.00131646168480621	0.00114649719178044	0.000972299067046072	0.000797375368726738	0.000624862328339217	0.000457524350793406
0.00029775401439233	0.00014757207083214	8.62744520211733e-06	-0.000118029536314923	-0.000233004938835396	-0.00033530550816007
-0.000424150471955763	-0.000499463295310233	-0.000561871680732187	-0.000612707568151274	-0.000654007134918094	-0.000688510795804188
-0.000719663203002042	-0.000751613246125094	-0.000789214052207719	-0.000838022985705243	-0.000903841007945058	-0.000999080067655532
-0.001139874326819	-0.00133158769768691	-0.00156817163307071	-0.00183216512634181	-0.00209469471143156	-0.00231722592771467
-0.00243957603558108	-0.00239166223817275	-0.00211459613618429	-0.00156100547710855	-0.000695034155236661	0.000507657788342002
0.00205509110840155	0.00385776342780282	0.00576637899208745	0.00761023739729945	0.00919724610265358	0.0103139204305355
0.010739503973433	0.0104013697090394	0.00935175975719158	0.00772575355093229	0.00574533074610503	0.00366654836973879
0.0016881497670869	-3.76952535053032e-05	-0.00141733504270522	-0.00241252266974512	-0.00302503620698412	-0.00329428510950189
-0.00327483930033656	-0.00303422503779266	-0.00265292491544111	-0.00221997542100691	-0.00179804044486483	-0.00142632903059775
-0.00112793133844434	-0.000909528186015869	-0.000761391048296249	-0.000661738533929412	-0.000596372433439007	-0.000552955158659911
-0.000521597422960413	-0.000495100628579412	-0.000468956866626422	-0.000441348917081568	-0.000412017245418416	-0.000379667913147991
-0.000343802755715121	-0.000303967940332183	-0.000259724777125755	-0.000210649719136606	-0.000156334362319699	-9.63854455441893e-05
-3.04248505934285e-05	4.18821126650515e-05	0.000120582967080305	0.0002060799449553	0.000298795574070623	0.000399033333334323
0.000506977652781902	0.000622693913576325	0.000746128448008017	0.000877108539494857	0.00101534242258219	0.00116041928294281
0.00131180925737698	0.00146886343381241	0.00163081385130428	0.00179677350003524	0.00196573632131536	0.0021365772075822
0.00230805200240078	0.00247879750046356	0.00264733144759049	0.00281248696029781	0.0029730065304891	0.00312701691170498
0.0032727838260581	0.0034087161341056	0.00353336583484908	0.00364542806573467	0.00374374110265295	0.003827286359939
0.00389518839037241	0.00394671488517722	0.00398127667402198	0.00399842772501973	0.00399786514472798	0.00397942917814875
0.00394293425715578	0.00388708497637283	0.00381298707048357	0.00372234715825013	0.00361682550731593	0.00349803603420559
0.00336754630432501	0.00322687753196132	0.00307750458028289	0.00292085596133936	0.00275831383606158	0.00259121401426168
0.00242084595463301	0.00224845276475017	0.00207523120106901	0.00190233166892663	0.00173085822254136	0.00156186856501279
0.00139637404832175	0.00123533967333031	0.0010796840897818	0.000930279596300766	0.000787952140393033	0.000653481318445652
0.000527600375726925	0.000410926983878253	0.000303317281484483	0.000204403385224004	0.000113847325317587	3.13081129461618e-05
-4.35582597491818e-05	-0.000111098819667194	-0.000171663612746464	-0.000225605703965424	-0.000273281177342343	-0.000315049135935331
-0.000351271701842341	-0.000382314016201161	-0.000408544239189422	-0.000430333550024597	-0.000448056146963994	-0.000462089247304766
-0.000472813087383903	-0.000480610922578236	-0.000485869027304439	-0.000488976695019017	-0.000490326238218327	-0.000490298599016238
-0.000489028289488442	-0.000486603283920686	-0.00048314109375619	-0.000478753470745908	-0.000473546406948519	-0.000467620134730427
-0.000461069126765765	-0.000453982096036396	-0.000446441995831907	-0.000438526019749613	-0.000430305601694558	-0.000421846415879512
-0.000413208376824972	-0.000404445639359164	-0.000395606598618042	-0.000386733890045284	-0.000377864389392297	-0.000369029212718219
-0.000360251141572049	-0.000351481642990599	-0.000342703413445814	-0.00033392690938272	-0.000325161260938808	-0.000316414271944036
-0.000307692419920826	-0.00029900085608407	-0.00029034340534112	-0.000281722566291796	-0.000273139511228385	-0.000264594086135639
-0.000256084810690775	-0.000247608878263476	-0.000239162155915891	-0.000230739184402635	-0.000222333178170787	-0.000213936025359894
-0.000205538287801967	-0.000197129201021484	-0.000188696674235388	-0.000180227290353087	-0.000171706305976456	-0.000163117651399834
-0.00015444393061003	-0.000145666421286312	-0.000136765074800421	-0.000127670955120888	-0.000118179326680852	-0.000108265118345436
-9.78500017995765e-05	-8.67738351887626e-05	-7.47946631190372e-05	-6.15887166569973e-05	-4.67504133297908e-05	-2.9792357125123e-05
-1.01453384912509e-05	1.28416656630159e-05	3.99014919683133e-05	7.18487905947252e-05	0.000109580025251779	0.000153834389555981
0.000205043992401244	0.000264954603048788	0.000335094801567635	0.000416616330132293	0.000510294093022737	0.000616526156624426
0.000735333749428289	0.000866361262030735	0.00100887624713365	0.00116176941954439	0.00132355465617579	0.00149236899604616
0.00166597264027931	0.00184200654670488	0.00201765486365369	0.00218799387048017	0.00234840714466801	0.00249479198891035
0.00262355943110979	0.00273163422437839	0.00281645484703763	0.00287597350261849	0.00290865611986135	0.00291348235271608
0.00288994558034198	0.00283794916732309	0.0027568702170846	0.00265037938457418	0.00252321360397782	0.00237981098347452
0.00222431080523632	0.00206055352542824	0.00189208077420836	0.00172213535572773	0.00155366124813046	0.00138930360355363
0.00123140874812737	0.00108202418197482	0.000942898579212115	0.000815481787948433	0.000700924830285952	0.000600079902319873
0.000511499143780712	0.000434201947257832	0.000369370054875432	0.000316970174879059	0.000275747128323117	0.000243223849070867
0.000215701383794428	0.000188258891974774	0.000154753645901738	0.000107821030674007	3.88745441991289e-05	-6.15855504013207e-05
-0.000204913396959135	-0.000399052843728505	-0.000638502119518045	-0.000903747977475323	-0.0011613460713297	-0.00136452519651428
-0.00144821903680681	-0.00134798562925902	-0.00100542889856827	-0.000368198657077443	0.000604282645254985	0.00192269739029903
0.00355651003061569	0.0054155690657658	0.00734948424499308	0.00914762656722414	0.0105580771856867	0.011371160685017
0.0114570945428038	0.0107893365612985	0.00944518176545237	0.00760576240291706	0.00554592435330447	0.00350009585562161
0.001643200659955	0.000100015057658978	-0.00106106454461656	-0.0018274810614686	-0.00221560210094974	-0.00228777682787516
-0.00212261062269676	-0.0017954644309652	-0.00137845476332994	-0.000940453695539219	-0.000546709410085546	-0.000232674658112438
4.99478538595388e-06	0.00017434650867213	0.000286827999452415	0.000357286644876968	0.000403667985318875	0.00043813896327318
0.000466020851777241	0.000491645753536142	0.00051808505521542	0.000547149427441063	0.000579388824799512	0.000614903251364662
0.000654418712407191	0.000698369910793957	0.000747180666821275	0.000801264516933895	0.000861024713724993	0.00092685422593618
0.000999135738457492	0.0010781532419944	0.00116416367429738	0.00125753760492451	0.00135853297372232	0.00146729134445043
0.00158383790478162	0.00170808146630181	0.00183981446451005	0.00197871295881851	0.00212433663255253	0.00227612879295056
0.00243341637116419	0.00259540992225817	0.00276120469324445	0.00293022972811497	0.00310129391883095	0.00327265471707504
0.00344262688872958	0.00360958251387666	0.00377195098679809	0.0039282190159754	0.00407693062408987	0.00421668714802247
0.00434614723885395	0.00446402686186473	0.004569099296535	0.00466019513654465	0.00473620228977332	0.00479606597830036
0.00483878873840486	0.0048634244017645	0.00486895121592815	0.00485550848909609	0.00482375394505823	0.00477441573366767
0.00470829243084066	0.00462625303855666	0.00452923698485829	0.00441825412385136	0.00429438473570484	0.00415877952665091
0.00401265962898488	0.00385731660106528	0.0036941124273138	0.00352447951821531	0.00334992071031787	0.00317200926623269
0.00299238887463418	0.00281277365025993	0.00263494813391069	0.0024607672924504	0.00229172360493274	0.00212810046160316
0.00197058328939496	0.00181980301001977	0.00167629682530673	0.0015405082172025	0.00141278694777126	0.00129338905919468
0.00118247687377197	0.00108011899391983	0.000986290302172476	0.00090087196118165	0.000823651413716593	0.000754322382664067
0.000692484871028337	0.000637645161931191	0.000589215818611919	0.000546532710582754	0.000509324035481893	0.000477249096088096
0.000449838098403563	0.000426646096341448	0.000407252991725847	0.000391263534291811	0.000378307321685337	0.00036803879946337
0.000360137261093804	0.000354306847955482	0.000350276549338197	0.000347800202442687	0.000346656492380643	0.0003466489521747
0.000347605962758447	0.000349380752976416	0.00035186584205428	0.000355152995543787	0.000359164196541936	0.000363758969206538
0.000368809299174007	0.000374199633559361	0.000379826880956221	0.000385600411436811	0.000391442056551961	0.000397286109331101
0.000403079324282266	0.000408780917392099	0.000414362566125839	0.000419808409427333	0.000425115047719031	0.000430291542901988
0.000435359418355859	0.000440352658938906	0.000445317710987992	0.000450313460878304	0.000455379000265531	0.000460481893002219
0.000465584647240748	0.000470655324770387	0.000475667541017307	0.000480600465044573	0.000485438819552148	0.000490172880876887
0.000494798478992546	0.000499316997509773	0.000503735373676115	0.000508066098376015	0.000512327216130811	0.000516542325098735
0.000520740577074922	0.000524956677491395	0.000529230885417079	0.000533609013557793	0.000538142428256252	0.000542888049492066
0.000547908350881743	0.000553271359678689	0.000559050656773201	0.000565325376692477	0.000572261805142615	0.000580218228945363
0.000589504609999052	0.00060051938542416	0.000613756226343941	0.000629804037884427	0.000649346959174421	0.000673164363345505
0.000702104167625706	0.000737073695220661	0.000779254630807312	0.000829769623565429	0.000889641615427677	0.000959793841079601
0.00104104982795965	0.00113413339625914	0.00123966020487802	0.00135781086132917	0.00148825372416291	0.00163021629684549
0.00178243643637113	0.00194316235326195	0.00211015261156798	0.0022806761288672	0.00245151217626549	0.00261895037839665
0.00277880684111586	0.00292760955186359	0.00306118159342714	0.00317520821545415	0.00326617849057173	0.00333138531438643
0.00336892540548427	0.00337769930543073	0.00335741137877073	0.00330856981302865	0.00323248661870833	0.00313127762929306
0.00300779483539435	0.00286442589381452	0.00270560396649169	0.00253620703532405	0.00236066200026639	0.0021829446793301
0.00200657980858317	0.0018346410421502	0.0016697509522124	0.00151408102900757	0.00136935168083014	0.0012368322340311
0.0011173409330181	0.00101124494025535	0.000918425689704409	0.000838243850721465	0.000770029554367293	0.000712694175567704
0.000664661209742448	0.000623866272805219	0.000587758023582106	0.000553510439207645	0.000513849803415222	0.00045934518337704
0.000380519736945378	0.000267850712652592	0.000111769449711109	-9.62530770502706e-05	-0.000348850950754631	-0.000619889361785007
-0.000871219376379433	-0.00105281928372603	-0.00110279459596298	-0.00095123196547031	-0.000538342475634294	0.000200414014245446
0.00129362954080012	0.00272808077183022	0.00444872900630551	0.00636874124491627	0.00830485796803384	0.0099553101159399
0.0110884079987374	0.0115539204299132	0.0112830747263378	0.0102885567082657	0.00868117470974508	0.00671441971851496
0.00463989722225571	0.00265819352249007	0.000918862178729034	-0.000479575991528217	-0.00148928410296842	-0.00211462279826926
-0.00239178601135953	-0.00237454155610108	-0.002134014334477	-0.00175791458759694	-0.00132884262262582	-0.00091002665553298
-0.000545452115191959	-0.000258142841498166	-5.01610853688811e-05	9.2267118914589e-05	0.000184486986063179	0.000242800293970748
0.000280355717650898	0.000307081769316619	0.000329686798380304	0.000351658991453731	0.000374400793213219	0.000399525718220927
0.000427628570095712	0.000459248825780561	0.000494892699545175	0.000535033142985964	0.000580109845026049	0.000630529231915265
0.000686664467230157	0.000748768648767343	0.000816934472558181	0.00089170875357705	0.00097357389898755	0.00106289395892063
0.00115991462647457	0.00126476323771501	0.00137744877167493	0.00149786185035464	0.00162577473872182	0.00176084134471147
0.00190259721922594	0.00205045955613492	0.00220372719227546	0.00236158060745194	0.00252308192443608	0.00268717490896696
0.002852684969751	0.00301831915846193	0.00318278575369883	0.00334522461893928	0.00350381184058001	0.00365666241729306
0.00380202419883111	0.00393827788602744	0.00406393703079595	0.00417764803613113	0.00427819015610808	0.00436447549588252
0.00443554901169078	0.00449058851084979	0.00452890465175708	0.00454994094389082	0.00455327374780975	0.00453861227515324
0.00450579858864127	0.00445375117564842	0.00438256079074995	0.00429394511934844	0.00418957794711162	0.00407108910696753
0.00394006447910452	0.00379804599097123	0.00364653161727661	0.00348697537998991	0.00332078734834066	0.00314933363881874
0.00297393641517427	0.00279587388841771	0.00261638031681982	0.00243664600591165	0.00225781730848456	0.0020809966245902
0.00190724240154052	0.00173756913390779	0.00157294736352457	0.00141430367948372	0.00126252071813839	0.00111843716310206
0.000982847745248483	0.00085646350174135	0.000739260041922217	0.000630863041645292	0.000530936449262297	0.000439140802875714
0.000355133230338786	0.000278567449255513	0.000209093766980653	0.000146359080619724	9.00068770290036e-05	3.96772328155265e-05
-4.99318566291151e-06	-4.43711222977583e-05	-7.88267312297014e-05	-0.000108733576848669	-0.000134468633793833	-0.000156412286953601
-0.000174948331465629	-0.000190463972716808	-0.000203349826343275	-0.000213999918230402	-0.000222811684512809	-0.000230185971574354
-0.000236362275484346	-0.000241385903444444	-0.000245371959055277	-0.000248430337441692	-0.000250665714041386	-0.000252177544604908
-0.000253060065195654	-0.000253402292189878	-0.000253288022276678	-0.000252795832458008	-0.000251999080048669	-0.000250965902676318
-0.000249759218281457	-0.000248436725117445	-0.000247050901750487	-0.000245649007059641	-0.000244273080236818	-0.000242959940786775
-0.000241713193117457	-0.000240473201895136	-0.000239244056256755	-0.000238033243242848	-0.000236847175972159	-0.000235691193641644
