1.06224669804335	1.06224669804335	1.06224669804335	1.06224669804335	1.06224669804335	1.06224669804335
1.08563837536556	1.08563837536556	1.08563837536556	1.08563837536556	1.08563837536556	1.08563837536556
0.912029314724764	0.912029314724764	0.912029314724764	0.912029314724764	0.912029314724764	0.912029314724764
0.700692831575823	0.700692831575823	0.700692831575823	0.700692831575823	0.700692831575823	0.700692831575823
0.461271396135879	0.461271396135879	0.461271396135879	0.461271396135879	0.461271396135879	0.461271396135879
0.283567062135863	0.283567062135863	0.283567062135863	0.283567062135863	0.283567062135863	0.283567062135863
0.021585991940894	0.021585991940894	0.021585991940894	0.021585991940894	0.021585991940894	0.021585991940894
-0.055499902020014	-0.055499902020014	-0.055499902020014	-0.055499902020014	-0.055499902020014	-0.055499902020014
-0.20680591300124	-0.20680591300124	-0.20680591300124	-0.20680591300124	-0.20680591300124	-0.20680591300124
-0.388851103716876	-0.388851103716876	-0.388851103716876	-0.388851103716876	-0.388851103716876	-0.388851103716876
-0.33709199056929	-0.33709199056929	-0.33709199056929	-0.33709199056929	-0.33709199056929	-0.33709199056929
-0.305104546388511	-0.305104546388511	-0.305104546388511	-0.305104546388511	-0.305104546388511	-0.305104546388511
-0.370359504009845	-0.370359504009845	-0.370359504009845	-0.370359504009845	-0.370359504009845	-0.370359504009845
-0.295562539583617	-0.295562539583617	-0.295562539583617	-0.295562539583617	-0.295562539583617	-0.295562539583617
-0.232990617034949	-0.232990617034949	-0.232990617034949	-0.232990617034949	-0.232990617034949	-0.232990617034949
-0.243446771262647	-0.243446771262647	-0.243446771262647	-0.243446771262647	-0.243446771262647	-0.243446771262647
-0.25299253279181	-0.25299253279181	-0.25299253279181	-0.25299253279181	-0.25299253279181	-0.25299253279181
-0.172573749757124	-0.172573749757124	-0.172573749757124	-0.172573749757124	-0.172573749757124	-0.172573749757124
-0.189281104719744	-0.189281104719744	-0.189281104719744	-0.189281104719744	-0.189281104719744	-0.189281104719744
-0.202800115641852	-0.202800115641852	-0.202800115641852	-0.202800115641852	-0.202800115641852	-0.202800115641852
-0.125186170761435	-0.125186170761435	-0.125186170761435	-0.125186170761435	-0.125186170761435	-0.125186170761435
-0.14792438254496	-0.14792438254496	-0.14792438254496	-0.14792438254496	-0.14792438254496	-0.14792438254496
-0.153882379987606	-0.153882379987606	-0.153882379987606	-0.153882379987606	-0.153882379987606	-0.153882379987606
-0.130869500676433	-0.130869500676433	-0.130869500676433	-0.130869500676433	-0.130869500676433	-0.130869500676433
-0.184761022083014	-0.184761022083014	-0.184761022083014	-0.184761022083014	-0.184761022083014	-0.184761022083014
-0.122363528502842	-0.122363528502842	-0.122363528502842	-0.122363528502842	-0.122363528502842	-0.122363528502842
-0.136331880085111	-0.136331880085111	-0.136331880085111	-0.136331880085111	-0.136331880085111	-0.136331880085111
-0.139619570443118	-0.139619570443118	-0.139619570443118	-0.139619570443118	-0.139619570443118	-0.139619570443118
-0.102281390114824	-0.102281390114824	-0.102281390114824	-0.102281390114824	-0.102281390114824	-0.102281390114824
-0.00182132709179772	-0.00182132709179772	-0.00182132709179772	-0.00182132709179772	-0.00182132709179772	-0.00182132709179772
-0.0787451053425649	-0.0787451053425649	-0.0787451053425649	-0.0787451053425649	-0.0787451053425649	-0.0787451053425649
-0.0572864289564475	-0.0572864289564475	-0.0572864289564475	-0.0572864289564475	-0.0572864289564475	-0.0572864289564475
0.00918136722350689	0.00918136722350689	0.00918136722350689	0.00918136722350689	0.00918136722350689	0.00918136722350689
-0.109362249618043	-0.109362249618043	-0.109362249618043	-0.109362249618043	-0.109362249618043	-0.109362249618043
0.0516563883303502	0.0516563883303502	0.0516563883303502	0.0516563883303502	0.0516563883303502	0.0516563883303502
-0.138084911144386	-0.138084911144386	-0.138084911144386	-0.138084911144386	-0.138084911144386	-0.138084911144386
-0.0507044009026497	-0.0507044009026497	-0.0507044009026497	-0.0507044009026497	-0.0507044009026497	-0.0507044009026497
0.00328307862180084	0.00328307862180084	0.00328307862180084	0.00328307862180084	0.00328307862180084	0.00328307862180084
0.0684443854375177	0.0684443854375177	0.0684443854375177	0.0684443854375177	0.0684443854375177	0.0684443854375177
-0.0751016083103877	-0.0751016083103877	-0.0751016083103877	-0.0751016083103877	-0.0751016083103877	-0.0751016083103877
0.0639532273210285	0.0639532273210285	0.0639532273210285	0.0639532273210285	0.0639532273210285	0.0639532273210285
-0.0111769685069561	-0.0111769685069561	-0.0111769685069561	-0.0111769685069561	-0.0111769685069561	-0.0111769685069561
0.0819369863506884	0.0819369863506884	0.0819369863506884	0.0819369863506884	0.0819369863506884	0.0819369863506884
0.0574347339287327	0.0574347339287327	0.0574347339287327	0.0574347339287327	0.0574347339287327	0.0574347339287327
0.143990932182198	0.143990932182198	0.143990932182198	0.143990932182198	0.143990932182198	0.143990932182198
0.0158286731970192	0.0158286731970192	0.0158286731970192	0.0158286731970192	0.0158286731970192	0.0158286731970192
0.0799820455731125	0.0799820455731125	0.0799820455731125	0.0799820455731125	0.0799820455731125	0.0799820455731125
0.00370663361051844	0.00370663361051844	0.00370663361051844	0.00370663361051844	0.00370663361051844	0.00370663361051844
0.192742005585793	0.192742005585793	0.192742005585793	0.192742005585793	0.192742005585793	0.192742005585793
0.0746892082958355	0.0746892082958355	0.0746892082958355	0.0746892082958355	0.0746892082958355	0.0746892082958355
0.20264713654049	0.20264713654049	0.20264713654049	0.20264713654049	0.20264713654049	0.20264713654049
0.0713721671786528	0.0713721671786528	0.0713721671786528	0.0713721671786528	0.0713721671786528	0.0713721671786528
0.108558040439106	0.108558040439106	0.108558040439106	0.108558040439106	0.108558040439106	0.108558040439106
0.259983262785876	0.259983262785876	0.259983262785876	0.259983262785876	0.259983262785876	0.259983262785876
0.295454420439931	0.295454420439931	0.295454420439931	0.295454420439931	0.295454420439931	0.295454420439931
0.294170577300483	0.294170577300483	0.294170577300483	0.294170577300483	0.294170577300483	0.294170577300483
0.167564933667349	0.167564933667349	0.167564933667349	0.167564933667349	0.167564933667349	0.167564933667349
0.340008789721138	0.340008789721138	0.340008789721138	0.340008789721138	0.340008789721138	0.340008789721138
0.200932007391022	0.200932007391022	0.200932007391022	0.200932007391022	0.200932007391022	0.200932007391022
0.231866059019273	0.231866059019273	0.231866059019273	0.231866059019273	0.231866059019273	0.231866059019273
0.231137874189766	0.231137874189766	0.231137874189766	0.231137874189766	0.231137874189766	0.231137874189766
0.338475160507352	0.338475160507352	0.338475160507352	0.338475160507352	0.338475160507352	0.338475160507352
0.421622774085165	0.421622774085165	0.421622774085165	0.421622774085165	0.421622774085165	0.421622774085165
0.373220180124427	0.373220180124427	0.373220180124427	0.373220180124427	0.373220180124427	0.373220180124427
0.402274147407243	0.402274147407243	0.402274147407243	0.402274147407243	0.402274147407243	0.402274147407243
0.326347632192127	0.326347632192127	0.326347632192127	0.326347632192127	0.326347632192127	0.326347632192127
0.404121958955383	0.404121958955383	0.404121958955383	0.404121958955383	0.404121958955383	0.404121958955383
0.382841661068293	0.382841661068293	0.382841661068293	0.382841661068293	0.382841661068293	0.382841661068293
0.470378434399671	0.470378434399671	0.470378434399671	0.470378434399671	0.470378434399671	0.470378434399671
0.438040757193713	0.438040757193713	0.438040757193713	0.438040757193713	0.438040757193713	0.438040757193713
0.357190571919835	0.357190571919835	0.357190571919835	0.357190571919835	0.357190571919835	0.357190571919835
0.38694550823247	0.38694550823247	0.38694550823247	0.38694550823247	0.38694550823247	0.38694550823247
0.322333251029775	0.322333251029775	0.322333251029775	0.322333251029775	0.322333251029775	0.322333251029775
0.428367508493145	0.428367508493145	0.428367508493145	0.428367508493145	0.428367508493145	0.428367508493145
0.462311370609888	0.462311370609888	0.462311370609888	0.462311370609888	0.462311370609888	0.462311370609888
0.280777932536758	0.280777932536758	0.280777932536758	0.280777932536758	0.280777932536758	0.280777932536758
0.355734503730492	0.355734503730492	0.355734503730492	0.355734503730492	0.355734503730492	0.355734503730492
0.399303319222835	0.399303319222835	0.399303319222835	0.399303319222835	0.399303319222835	0.399303319222835
0.312267823986918	0.312267823986918	0.312267823986918	0.312267823986918	0.312267823986918	0.312267823986918
0.226180764482094	0.226180764482094	0.226180764482094	0.226180764482094	0.226180764482094	0.226180764482094
0.295961778132136	0.295961778132136	0.295961778132136	0.295961778132136	0.295961778132136	0.295961778132136
0.258228099665654	0.258228099665654	0.258228099665654	0.258228099665654	0.258228099665654	0.258228099665654
0.257624975812774	0.257624975812774	0.257624975812774	0.257624975812774	0.257624975812774	0.257624975812774
0.290984116359671	0.290984116359671	0.290984116359671	0.290984116359671	0.290984116359671	0.290984116359671
0.168116610294722	0.168116610294722	0.168116610294722	0.168116610294722	0.168116610294722	0.168116610294722
0.250999813770911	0.250999813770911	0.250999813770911	0.250999813770911	0.250999813770911	0.250999813770911
0.0958286779302505	0.0958286779302505	0.0958286779302505	0.0958286779302505	0.0958286779302505	0.0958286779302505
0.118816846556112	0.118816846556112	0.118816846556112	0.118816846556112	0.118816846556112	0.118816846556112
0.0494418111216771	0.0494418111216771	0.0494418111216771	0.0494418111216771	0.0494418111216771	0.0494418111216771
0.14672369621425	0.14672369621425	0.14672369621425	0.14672369621425	0.14672369621425	0.14672369621425
0.11171257681561	0.11171257681561	0.11171257681561	0.11171257681561	0.11171257681561	0.11171257681561
0.151882638610023	0.151882638610023	0.151882638610023	0.151882638610023	0.151882638610023	0.151882638610023
-0.0185926526600885	-0.0185926526600885	-0.0185926526600885	-0.0185926526600885	-0.0185926526600885	-0.0185926526600885
0.0175185573934498	0.0175185573934498	0.0175185573934498	0.0175185573934498	0.0175185573934498	0.0175185573934498
-0.0337939615918935	-0.0337939615918935	-0.0337939615918935	-0.0337939615918935	-0.0337939615918935	-0.0337939615918935
0.00854018819600676	0.00854018819600676	0.00854018819600676	0.00854018819600676	0.00854018819600676	0.00854018819600676
0.101037227643954	0.101037227643954	0.101037227643954	0.101037227643954	0.101037227643954	0.101037227643954
0.0438884067981474	0.0438884067981474	0.0438884067981474	0.0438884067981474	0.0438884067981474	0.0438884067981474
0.071493462700761	0.071493462700761	0.071493462700761	0.071493462700761	0.071493462700761	0.071493462700761
-0.0815448984458045	-0.0815448984458045	-0.0815448984458045	-0.0815448984458045	-0.0815448984458045	-0.0815448984458045
-0.0410321818681285	-0.0410321818681285	-0.0410321818681285	-0.0410321818681285	-0.0410321818681285	-0.0410321818681285
-0.0857049933326836	-0.0857049933326836	-0.0857049933326836	-0.0857049933326836	-0.0857049933326836	-0.0857049933326836
-0.0382785331597318	-0.0382785331597318	-0.0382785331597318	-0.0382785331597318	-0.0382785331597318	-0.0382785331597318
-0.00823928662879296	-0.00823928662879296	-0.00823928662879296	-0.00823928662879296	-0.00823928662879296	-0.00823928662879296
0.0219163937577002	0.0219163937577002	0.0219163937577002	0.0219163937577002	0.0219163937577002	0.0219163937577002
0.0178926299399734	0.0178926299399734	0.0178926299399734	0.0178926299399734	0.0178926299399734	0.0178926299399734
-0.132569486812359	-0.132569486812359	-0.132569486812359	-0.132569486812359	-0.132569486812359	-0.132569486812359
-0.000680069699168354	-0.000680069699168354	-0.000680069699168354	-0.000680069699168354	-0.000680069699168354	-0.000680069699168354
-0.00615315414077534	-0.00615315414077534	-0.00615315414077534	-0.00615315414077534	-0.00615315414077534	-0.00615315414077534
-0.113115856250836	-0.113115856250836	-0.113115856250836	-0.113115856250836	-0.113115856250836	-0.113115856250836
-0.128886121279035	-0.128886121279035	-0.128886121279035	-0.128886121279035	-0.128886121279035	-0.128886121279035
-0.132944006922796	-0.132944006922796	-0.132944006922796	-0.132944006922796	-0.132944006922796	-0.132944006922796
-9.68324537875959e-05	-9.68324537875959e-05	-9.68324537875959e-05	-9.68324537875959e-05	-9.68324537875959e-05	-9.68324537875959e-05
-0.136958100575592	-0.136958100575592	-0.136958100575592	-0.136958100575592	-0.136958100575592	-0.136958100575592
-0.134893896737856	-0.134893896737856	-0.134893896737856	-0.134893896737856	-0.134893896737856	-0.134893896737856
-0.0664311183266074	-0.0664311183266074	-0.0664311183266074	-0.0664311183266074	-0.0664311183266074	-0.0664311183266074
-0.122245716282261	-0.122245716282261	-0.122245716282261	-0.122245716282261	-0.122245716282261	-0.122245716282261
-0.117623373309589	-0.117623373309589	-0.117623373309589	-0.117623373309589	-0.117623373309589	-0.117623373309589
-0.119523149436491	-0.119523149436491	-0.119523149436491	-0.119523149436491	-0.119523149436491	-0.119523149436491
-0.0374019965878036	-0.0374019965878036	-0.0374019965878036	-0.0374019965878036	-0.0374019965878036	-0.0374019965878036
-0.00179955208706896	-0.00179955208706896	-0.00179955208706896	-0.00179955208706896	-0.00179955208706896	-0.00179955208706896
0.00319125608127746	0.00319125608127746	0.00319125608127746	0.00319125608127746	0.00319125608127746	0.00319125608127746
-0.163298722899486	-0.163298722899486	-0.163298722899486	-0.163298722899486	-0.163298722899486	-0.163298722899486
-0.0936776765522856	-0.0936776765522856	-0.0936776765522856	-0.0936776765522856	-0.0936776765522856	-0.0936776765522856
-0.0800290082755478	-0.0800290082755478	-0.0800290082755478	-0.0800290082755478	-0.0800290082755478	-0.0800290082755478
-0.0698114042463065	-0.0698114042463065	-0.0698114042463065	-0.0698114042463065	-0.0698114042463065	-0.0698114042463065
-0.0293890298432453	-0.0293890298432453	-0.0293890298432453	-0.0293890298432453	-0.0293890298432453	-0.0293890298432453
0.0189724186406251	0.0189724186406251	0.0189724186406251	0.0189724186406251	0.0189724186406251	0.0189724186406251
-0.0426296189796246	-0.0426296189796246	-0.0426296189796246	-0.0426296189796246	-0.0426296189796246	-0.0426296189796246
-0.014231811410773	-0.014231811410773	-0.014231811410773	-0.014231811410773	-0.014231811410773	-0.014231811410773
-0.0662163938905932	-0.0662163938905932	-0.0662163938905932	-0.0662163938905932	-0.0662163938905932	-0.0662163938905932
-0.12916245998961	-0.12916245998961	-0.12916245998961	-0.12916245998961	-0.12916245998961	-0.12916245998961
-0.109789417971658	-0.109789417971658	-0.109789417971658	-0.109789417971658	-0.109789417971658	-0.109789417971658
-0.0509294701909765	-0.0509294701909765	-0.0509294701909765	-0.0509294701909765	-0.0509294701909765	-0.0509294701909765
-0.138849237816216	-0.138849237816216	-0.138849237816216	-0.138849237816216	-0.138849237816216	-0.138849237816216
-0.128669303208982	-0.128669303208982	-0.128669303208982	-0.128669303208982	-0.128669303208982	-0.128669303208982
-0.0145258185839293	-0.0145258185839293	-0.0145258185839293	-0.0145258185839293	-0.0145258185839293	-0.0145258185839293
-0.0996317053903746	-0.0996317053903746	-0.0996317053903746	-0.0996317053903746	-0.0996317053903746	-0.0996317053903746
-0.00893615279078162	-0.00893615279078162	-0.00893615279078162	-0.00893615279078162	-0.00893615279078162	-0.00893615279078162
-0.01441908703356	-0.01441908703356	-0.01441908703356	-0.01441908703356	-0.01441908703356	-0.01441908703356
-0.141196712769415	-0.141196712769415	-0.141196712769415	-0.141196712769415	-0.141196712769415	-0.141196712769415
-0.106798518191993	-0.106798518191993	-0.106798518191993	-0.106798518191993	-0.106798518191993	-0.106798518191993
-0.0373087395568346	-0.0373087395568346	-0.0373087395568346	-0.0373087395568346	-0.0373087395568346	-0.0373087395568346
-0.00965232424981357	-0.00965232424981357	-0.00965232424981357	-0.00965232424981357	-0.00965232424981357	-0.00965232424981357
-0.099921591176179	-0.099921591176179	-0.099921591176179	-0.099921591176179	-0.099921591176179	-0.099921591176179
-0.0688656602089757	-0.0688656602089757	-0.0688656602089757	-0.0688656602089757	-0.0688656602089757	-0.0688656602089757
-0.0393545967449085	-0.0393545967449085	-0.0393545967449085	-0.0393545967449085	-0.0393545967449085	-0.0393545967449085
-0.0177491515334393	-0.0177491515334393	-0.0177491515334393	-0.0177491515334393	-0.0177491515334393	-0.0177491515334393
-0.0179902193569183	-0.0179902193569183	-0.0179902193569183	-0.0179902193569183	-0.0179902193569183	-0.0179902193569183
-0.0241971101126384	-0.0241971101126384	-0.0241971101126384	-0.0241971101126384	-0.0241971101126384	-0.0241971101126384
-0.066933134422992	-0.066933134422992	-0.066933134422992	-0.066933134422992	-0.066933134422992	-0.066933134422992
-0.150736140598727	-0.150736140598727	-0.150736140598727	-0.150736140598727	-0.150736140598727	-0.150736140598727
-0.0689751385828533	-0.0689751385828533	-0.0689751385828533	-0.0689751385828533	-0.0689751385828533	-0.0689751385828533
-0.037843766271385	-0.037843766271385	-0.037843766271385	-0.037843766271385	-0.037843766271385	-0.037843766271385
-0.0375281752423396	-0.0375281752423396	-0.0375281752423396	-0.0375281752423396	-0.0375281752423396	-0.0375281752423396
-0.116492770040501	-0.116492770040501	-0.116492770040501	-0.116492770040501	-0.116492770040501	-0.116492770040501
0.00297842502928817	0.00297842502928817	0.00297842502928817	0.00297842502928817	0.00297842502928817	0.00297842502928817
-0.129089315888792	-0.129089315888792	-0.129089315888792	-0.129089315888792	-0.129089315888792	-0.129089315888792
-0.0870887271850729	-0.0870887271850729	-0.0870887271850729	-0.0870887271850729	-0.0870887271850729	-0.0870887271850729
-0.121548149497586	-0.121548149497586	-0.121548149497586	-0.121548149497586	-0.121548149497586	-0.121548149497586
-0.100483562138293	-0.100483562138293	-0.100483562138293	-0.100483562138293	-0.100483562138293	-0.100483562138293
0.013517888242506	0.013517888242506	0.013517888242506	0.013517888242506	0.013517888242506	0.013517888242506
-0.00170177910671673	-0.00170177910671673	-0.00170177910671673	-0.00170177910671673	-0.00170177910671673	-0.00170177910671673
-0.0565426962720722	-0.0565426962720722	-0.0565426962720722	-0.0565426962720722	-0.0565426962720722	-0.0565426962720722
-0.138823246177746	-0.138823246177746	-0.138823246177746	-0.138823246177746	-0.138823246177746	-0.138823246177746
-0.0386261906905593	-0.0386261906905593	-0.0386261906905593	-0.0386261906905593	-0.0386261906905593	-0.0386261906905593
-0.135318047170576	-0.135318047170576	-0.135318047170576	-0.135318047170576	-0.135318047170576	-0.135318047170576
-0.123909181165455	-0.123909181165455	-0.123909181165455	-0.123909181165455	-0.123909181165455	-0.123909181165455
-0.0145618348224471	-0.0145618348224471	-0.0145618348224471	-0.0145618348224471	-0.0145618348224471	-0.0145618348224471
-0.125075498088885	-0.125075498088885	-0.125075498088885	-0.125075498088885	-0.125075498088885	-0.125075498088885
-0.114888952940177	-0.114888952940177	-0.114888952940177	-0.114888952940177	-0.114888952940177	-0.114888952940177
0.0661885949591485	0.0661885949591485	0.0661885949591485	0.0661885949591485	0.0661885949591485	0.0661885949591485
-0.115278352780754	-0.115278352780754	-0.115278352780754	-0.115278352780754	-0.115278352780754	-0.115278352780754
-0.108651114047812	-0.108651114047812	-0.108651114047812	-0.108651114047812	-0.108651114047812	-0.108651114047812
-0.0346451684471221	-0.0346451684471221	-0.0346451684471221	-0.0346451684471221	-0.0346451684471221	-0.0346451684471221
-0.10465243905726	-0.10465243905726	-0.10465243905726	-0.10465243905726	-0.10465243905726	-0.10465243905726
-0.00890295174607523	-0.00890295174607523	-0.00890295174607523	-0.00890295174607523	-0.00890295174607523	-0.00890295174607523
-0.0858565536000421	-0.0858565536000421	-0.0858565536000421	-0.0858565536000421	-0.0858565536000421	-0.0858565536000421
0.0797528877292869	0.0797528877292869	0.0797528877292869	0.0797528877292869	0.0797528877292869	0.0797528877292869
0.0614397148407751	0.0614397148407751	0.0614397148407751	0.0614397148407751	0.0614397148407751	0.0614397148407751
0.0234524196030114	0.0234524196030114	0.0234524196030114	0.0234524196030114	0.0234524196030114	0.0234524196030114
0.0827746619387408	0.0827746619387408	0.0827746619387408	0.0827746619387408	0.0827746619387408	0.0827746619387408
0.0747255922805624	0.0747255922805624	0.0747255922805624	0.0747255922805624	0.0747255922805624	0.0747255922805624
0.106976907996441	0.106976907996441	0.106976907996441	0.106976907996441	0.106976907996441	0.106976907996441
0.121873041741669	0.121873041741669	0.121873041741669	0.121873041741669	0.121873041741669	0.121873041741669
0.0126688913800259	0.0126688913800259	0.0126688913800259	0.0126688913800259	0.0126688913800259	0.0126688913800259
0.0702548579403332	0.0702548579403332	0.0702548579403332	0.0702548579403332	0.0702548579403332	0.0702548579403332
0.141576733922846	0.141576733922846	0.141576733922846	0.141576733922846	0.141576733922846	0.141576733922846
0.110790665594244	0.110790665594244	0.110790665594244	0.110790665594244	0.110790665594244	0.110790665594244
0.060532966574365	0.060532966574365	0.060532966574365	0.060532966574365	0.060532966574365	0.060532966574365
0.0505790527195945	0.0505790527195945	0.0505790527195945	0.0505790527195945	0.0505790527195945	0.0505790527195945
0.248965933161215	0.248965933161215	0.248965933161215	0.248965933161215	0.248965933161215	0.248965933161215
0.126732510070427	0.126732510070427	0.126732510070427	0.126732510070427	0.126732510070427	0.126732510070427
0.206131021769965	0.206131021769965	0.206131021769965	0.206131021769965	0.206131021769965	0.206131021769965
0.296265501933717	0.296265501933717	0.296265501933717	0.296265501933717	0.296265501933717	0.296265501933717
0.247613474518417	0.247613474518417	0.247613474518417	0.247613474518417	0.247613474518417	0.247613474518417
0.214779798110626	0.214779798110626	0.214779798110626	0.214779798110626	0.214779798110626	0.214779798110626
0.225255572570868	0.225255572570868	0.225255572570868	0.225255572570868	0.225255572570868	0.225255572570868
0.360765100661391	0.360765100661391	0.360765100661391	0.360765100661391	0.360765100661391	0.360765100661391
0.233956342615212	0.233956342615212	0.233956342615212	0.233956342615212	0.233956342615212	0.233956342615212
0.271518781264749	0.271518781264749	0.271518781264749	0.271518781264749	0.271518781264749	0.271518781264749
0.227462665384427	0.227462665384427	0.227462665384427	0.227462665384427	0.227462665384427	0.227462665384427
0.19394679170639	0.19394679170639	0.19394679170639	0.19394679170639	0.19394679170639	0.19394679170639
0.35289178146113	0.35289178146113	0.35289178146113	0.35289178146113	0.35289178146113	0.35289178146113
0.239620690829146	0.239620690829146	0.239620690829146	0.239620690829146	0.239620690829146	0.239620690829146
0.216427079271457	0.216427079271457	0.216427079271457	0.216427079271457	0.216427079271457	0.216427079271457
0.308898389159284	0.308898389159284	0.308898389159284	0.308898389159284	0.308898389159284	0.308898389159284
0.183447345298411	0.183447345298411	0.183447345298411	0.183447345298411	0.183447345298411	0.183447345298411
0.221949597842487	0.221949597842487	0.221949597842487	0.221949597842487	0.221949597842487	0.221949597842487
0.280452865868178	0.280452865868178	0.280452865868178	0.280452865868178	0.280452865868178	0.280452865868178
0.0891405467306612	0.0891405467306612	0.0891405467306612	0.0891405467306612	0.0891405467306612	0.0891405467306612
0.101883339143628	0.101883339143628	0.101883339143628	0.101883339143628	0.101883339143628	0.101883339143628
0.102123728093393	0.102123728093393	0.102123728093393	0.102123728093393	0.102123728093393	0.102123728093393
0.121713615239209	0.121713615239209	0.121713615239209	0.121713615239209	0.121713615239209	0.121713615239209
0.180735975963214	0.180735975963214	0.180735975963214	0.180735975963214	0.180735975963214	0.180735975963214
0.0548562283121781	0.0548562283121781	0.0548562283121781	0.0548562283121781	0.0548562283121781	0.0548562283121781
0.0654636574658405	0.0654636574658405	0.0654636574658405	0.0654636574658405	0.0654636574658405	0.0654636574658405
0.0270824054087426	0.0270824054087426	0.0270824054087426	0.0270824054087426	0.0270824054087426	0.0270824054087426
0.141753701140897	0.141753701140897	0.141753701140897	0.141753701140897	0.141753701140897	0.141753701140897
0.0567330337402825	0.0567330337402825	0.0567330337402825	0.0567330337402825	0.0567330337402825	0.0567330337402825
0.0950053058975366	0.0950053058975366	0.0950053058975366	0.0950053058975366	0.0950053058975366	0.0950053058975366
-0.0299678129256626	-0.0299678129256626	-0.0299678129256626	-0.0299678129256626	-0.0299678129256626	-0.0299678129256626
0.0651949572136758	0.0651949572136758	0.0651949572136758	0.0651949572136758	0.0651949572136758	0.0651949572136758
0.0697803386472476	0.0697803386472476	0.0697803386472476	0.0697803386472476	0.0697803386472476	0.0697803386472476
0.0979593103212622	0.0979593103212622	0.0979593103212622	0.0979593103212622	0.0979593103212622	0.0979593103212622
0.0211408409368801	0.0211408409368801	0.0211408409368801	0.0211408409368801	0.0211408409368801	0.0211408409368801
0.0728737922116072	0.0728737922116072	0.0728737922116072	0.0728737922116072	0.0728737922116072	0.0728737922116072
-0.0421817287208032	-0.0421817287208032	-0.0421817287208032	-0.0421817287208032	-0.0421817287208032	-0.0421817287208032
0.0755472336878716	0.0755472336878716	0.0755472336878716	0.0755472336878716	0.0755472336878716	0.0755472336878716
-0.112019136409966	-0.112019136409966	-0.112019136409966	-0.112019136409966	-0.112019136409966	-0.112019136409966
-0.061219633966286	-0.061219633966286	-0.061219633966286	-0.061219633966286	-0.061219633966286	-0.061219633966286
0.00828229208632436	0.00828229208632436	0.00828229208632436	0.00828229208632436	0.00828229208632436	0.00828229208632436
0.0357288647643552	0.0357288647643552	0.0357288647643552	0.0357288647643552	0.0357288647643552	0.0357288647643552
-0.0181496889466544	-0.0181496889466544	-0.0181496889466544	-0.0181496889466544	-0.0181496889466544	-0.0181496889466544
-0.162778425520451	-0.162778425520451	-0.162778425520451	-0.162778425520451	-0.162778425520451	-0.162778425520451
-0.122778331419319	-0.122778331419319	-0.122778331419319	-0.122778331419319	-0.122778331419319	-0.122778331419319
-0.211239228818126	-0.211239228818126	-0.211239228818126	-0.211239228818126	-0.211239228818126	-0.211239228818126
-0.218044325311884	-0.218044325311884	-0.218044325311884	-0.218044325311884	-0.218044325311884	-0.218044325311884
-0.115328275581591	-0.115328275581591	-0.115328275581591	-0.115328275581591	-0.115328275581591	-0.115328275581591
-0.126727471096617	-0.126727471096617	-0.126727471096617	-0.126727471096617	-0.126727471096617	-0.126727471096617
-0.204008404408836	-0.204008404408836	-0.204008404408836	-0.204008404408836	-0.204008404408836	-0.204008404408836
-0.0152185388406041	-0.0152185388406041	-0.0152185388406041	-0.0152185388406041	-0.0152185388406041	-0.0152185388406041
0.0700751264539345	0.0700751264539345	0.0700751264539345	0.0700751264539345	0.0700751264539345	0.0700751264539345
0.157965394343175	0.157965394343175	0.157965394343175	0.157965394343175	0.157965394343175	0.157965394343175
0.350767955195722	0.350767955195722	0.350767955195722	0.350767955195722	0.350767955195722	0.350767955195722
0.53759645388018	0.53759645388018	0.53759645388018	0.53759645388018	0.53759645388018	0.53759645388018
0.637200434485647	0.637200434485647	0.637200434485647	0.637200434485647	0.637200434485647	0.637200434485647
0.876612190712739	0.876612190712739	0.876612190712739	0.876612190712739	0.876612190712739	0.876612190712739
1.07948630566852	1.07948630566852	1.07948630566852	1.07948630566852	1.07948630566852	1.07948630566852
1.1447958778554	1.1447958778554	1.1447958778554	1.1447958778554	1.1447958778554	1.1447958778554
1.11588460113574	1.11588460113574	1.11588460113574	1.11588460113574	1.11588460113574	1.11588460113574
1.13011157872682	1.13011157872682	1.13011157872682	1.13011157872682	1.13011157872682	1.13011157872682
1.03222875112303	1.03222875112303	1.03222875112303	1.03222875112303	1.03222875112303	1.03222875112303
0.77491688364571	0.77491688364571	0.77491688364571	0.77491688364571	0.77491688364571	0.77491688364571
0.657761356141186	0.657761356141186	0.657761356141186	0.657761356141186	0.657761356141186	0.657761356141186
0.320133119533518	0.320133119533518	0.320133119533518	0.320133119533518	0.320133119533518	0.320133119533518
0.200443800522684	0.200443800522684	0.200443800522684	0.200443800522684	0.200443800522684	0.200443800522684
-0.0771525258394272	-0.0771525258394272	-0.0771525258394272	-0.0771525258394272	-0.0771525258394272	-0.0771525258394272
-0.0826732659043217	-0.0826732659043217	-0.0826732659043217	-0.0826732659043217	-0.0826732659043217	-0.0826732659043217
-0.295189088346684	-0.295189088346684	-0.295189088346684	-0.295189088346684	-0.295189088346684	-0.295189088346684
-0.363710586768657	-0.363710586768657	-0.363710586768657	-0.363710586768657	-0.363710586768657	-0.363710586768657
-0.277301917854944	-0.277301917854944	-0.277301917854944	-0.277301917854944	-0.277301917854944	-0.277301917854944
-0.377644102613561	-0.377644102613561	-0.377644102613561	-0.377644102613561	-0.377644102613561	-0.377644102613561
-0.240724222864578	-0.240724222864578	-0.240724222864578	-0.240724222864578	-0.240724222864578	-0.240724222864578
-0.24828087399708	-0.24828087399708	-0.24828087399708	-0.24828087399708	-0.24828087399708	-0.24828087399708
-0.152484554144428	-0.152484554144428	-0.152484554144428	-0.152484554144428	-0.152484554144428	-0.152484554144428
-0.220278857346787	-0.220278857346787	-0.220278857346787	-0.220278857346787	-0.220278857346787	-0.220278857346787
-0.142288402855199	-0.142288402855199	-0.142288402855199	-0.142288402855199	-0.142288402855199	-0.142288402855199
-0.10371356687356	-0.10371356687356	-0.10371356687356	-0.10371356687356	-0.10371356687356	-0.10371356687356
-0.119745185428398	-0.119745185428398	-0.119745185428398	-0.119745185428398	-0.119745185428398	-0.119745185428398
-0.0337979327408378	-0.0337979327408378	-0.0337979327408378	-0.0337979327408378	-0.0337979327408378	-0.0337979327408378
0.0311315042773065	0.0311315042773065	0.0311315042773065	0.0311315042773065	0.0311315042773065	0.0311315042773065
0.0760200454098514	0.0760200454098514	0.0760200454098514	0.0760200454098514	0.0760200454098514	0.0760200454098514
-0.026144904628004	-0.026144904628004	-0.026144904628004	-0.026144904628004	-0.026144904628004	-0.026144904628004
-0.0338195636243746	-0.0338195636243746	-0.0338195636243746	-0.0338195636243746	-0.0338195636243746	-0.0338195636243746
-0.0482106999117628	-0.0482106999117628	-0.0482106999117628	-0.0482106999117628	-0.0482106999117628	-0.0482106999117628
-0.0134866228105652	-0.0134866228105652	-0.0134866228105652	-0.0134866228105652	-0.0134866228105652	-0.0134866228105652
-0.0681059934171968	-0.0681059934171968	-0.0681059934171968	-0.0681059934171968	-0.0681059934171968	-0.0681059934171968
0.0810878257733604	0.0810878257733604	0.0810878257733604	0.0810878257733604	0.0810878257733604	0.0810878257733604
-0.0312961127210013	-0.0312961127210013	-0.0312961127210013	-0.0312961127210013	-0.0312961127210013	-0.0312961127210013
0.0754412361830115	0.0754412361830115	0.0754412361830115	0.0754412361830115	0.0754412361830115	0.0754412361830115
-0.0235397030811876	-0.0235397030811876	-0.0235397030811876	-0.0235397030811876	-0.0235397030811876	-0.0235397030811876
0.0507183598672084	0.0507183598672084	0.0507183598672084	0.0507183598672084	0.0507183598672084	0.0507183598672084
-0.00571786399140983	-0.00571786399140983	-0.00571786399140983	-0.00571786399140983	-0.00571786399140983	-0.00571786399140983
0.038593311685358	0.038593311685358	0.038593311685358	0.038593311685358	0.038593311685358	0.038593311685358
-0.0236694106288145	-0.0236694106288145	-0.0236694106288145	-0.0236694106288145	-0.0236694106288145	-0.0236694106288145
-0.0395416492683733	-0.0395416492683733	-0.0395416492683733	-0.0395416492683733	-0.0395416492683733	-0.0395416492683733
0.05375279734786	0.05375279734786	0.05375279734786	0.05375279734786	0.05375279734786	0.05375279734786
0.00457552229589815	0.00457552229589815	0.00457552229589815	0.00457552229589815	0.00457552229589815	0.00457552229589815
0.0997041443716648	0.0997041443716648	0.0997041443716648	0.0997041443716648	0.0997041443716648	0.0997041443716648
0.0581095814708528	0.0581095814708528	0.0581095814708528	0.0581095814708528	0.0581095814708528	0.0581095814708528
0.163884731346636	0.163884731346636	0.163884731346636	0.163884731346636	0.163884731346636	0.163884731346636
0.0190567436820277	0.0190567436820277	0.0190567436820277	0.0190567436820277	0.0190567436820277	0.0190567436820277
0.0399176079575691	0.0399176079575691	0.0399176079575691	0.0399176079575691	0.0399176079575691	0.0399176079575691
0.222542963358674	0.222542963358674	0.222542963358674	0.222542963358674	0.222542963358674	0.222542963358674
0.108278916642074	0.108278916642074	0.108278916642074	0.108278916642074	0.108278916642074	0.108278916642074
0.142326896644875	0.142326896644875	0.142326896644875	0.142326896644875	0.142326896644875	0.142326896644875
0.0905528699867552	0.0905528699867552	0.0905528699867552	0.0905528699867552	0.0905528699867552	0.0905528699867552
0.207505779656548	0.207505779656548	0.207505779656548	0.207505779656548	0.207505779656548	0.207505779656548
0.180360464854119	0.180360464854119	0.180360464854119	0.180360464854119	0.180360464854119	0.180360464854119
0.187913778812468	0.187913778812468	0.187913778812468	0.187913778812468	0.187913778812468	0.187913778812468
0.187062012712308	0.187062012712308	0.187062012712308	0.187062012712308	0.187062012712308	0.187062012712308
0.316409629576228	0.316409629576228	0.316409629576228	0.316409629576228	0.316409629576228	0.316409629576228
0.315972799616543	0.315972799616543	0.315972799616543	0.315972799616543	0.315972799616543	0.315972799616543
0.361765834704708	0.361765834704708	0.361765834704708	0.361765834704708	0.361765834704708	0.361765834704708
0.409617841945862	0.409617841945862	0.409617841945862	0.409617841945862	0.409617841945862	0.409617841945862
0.326341008714307	0.326341008714307	0.326341008714307	0.326341008714307	0.326341008714307	0.326341008714307
0.446089269988824	0.446089269988824	0.446089269988824	0.446089269988824	0.446089269988824	0.446089269988824
0.38741795021773	0.38741795021773	0.38741795021773	0.38741795021773	0.38741795021773	0.38741795021773
0.335951701896144	0.335951701896144	0.335951701896144	0.335951701896144	0.335951701896144	0.335951701896144
0.337306676163206	0.337306676163206	0.337306676163206	0.337306676163206	0.337306676163206	0.337306676163206
0.381585597390601	0.381585597390601	0.381585597390601	0.381585597390601	0.381585597390601	0.381585597390601
0.362935016453048	0.362935016453048	0.362935016453048	0.362935016453048	0.362935016453048	0.362935016453048
0.35734474706667	0.35734474706667	0.35734474706667	0.35734474706667	0.35734474706667	0.35734474706667
0.528732291898329	0.528732291898329	0.528732291898329	0.528732291898329	0.528732291898329	0.528732291898329
0.44494763565063	0.44494763565063	0.44494763565063	0.44494763565063	0.44494763565063	0.44494763565063
0.557203159495698	0.557203159495698	0.557203159495698	0.557203159495698	0.557203159495698	0.557203159495698
0.493528864092278	0.493528864092278	0.493528864092278	0.493528864092278	0.493528864092278	0.493528864092278
0.38608851874765	0.38608851874765	0.38608851874765	0.38608851874765	0.38608851874765	0.38608851874765
0.574740244425264	0.574740244425264	0.574740244425264	0.574740244425264	0.574740244425264	0.574740244425264
0.554587086129932	0.554587086129932	0.554587086129932	0.554587086129932	0.554587086129932	0.554587086129932
0.387780950514605	0.387780950514605	0.387780950514605	0.387780950514605	0.387780950514605	0.387780950514605
0.541458181859524	0.541458181859524	0.541458181859524	0.541458181859524	0.541458181859524	0.541458181859524
0.53536554829262	0.53536554829262	0.53536554829262	0.53536554829262	0.53536554829262	0.53536554829262
0.487646448071296	0.487646448071296	0.487646448071296	0.487646448071296	0.487646448071296	0.487646448071296
0.423801418192579	0.423801418192579	0.423801418192579	0.423801418192579	0.423801418192579	0.423801418192579
0.471386442640709	0.471386442640709	0.471386442640709	0.471386442640709	0.471386442640709	0.471386442640709
0.468036800027611	0.468036800027611	0.468036800027611	0.468036800027611	0.468036800027611	0.468036800027611
0.498523812925959	0.498523812925959	0.498523812925959	0.498523812925959	0.498523812925959	0.498523812925959
0.402229901178151	0.402229901178151	0.402229901178151	0.402229901178151	0.402229901178151	0.402229901178151
0.386464631622965	0.386464631622965	0.386464631622965	0.386464631622965	0.386464631622965	0.386464631622965
0.376551688473838	0.376551688473838	0.376551688473838	0.376551688473838	0.376551688473838	0.376551688473838
0.357692277053036	0.357692277053036	0.357692277053036	0.357692277053036	0.357692277053036	0.357692277053036
0.254675068602507	0.254675068602507	0.254675068602507	0.254675068602507	0.254675068602507	0.254675068602507
0.355500204655611	0.355500204655611	0.355500204655611	0.355500204655611	0.355500204655611	0.355500204655611
0.285770073861576	0.285770073861576	0.285770073861576	0.285770073861576	0.285770073861576	0.285770073861576
0.326671505516684	0.326671505516684	0.326671505516684	0.326671505516684	0.326671505516684	0.326671505516684
0.24409500057828	0.24409500057828	0.24409500057828	0.24409500057828	0.24409500057828	0.24409500057828
0.307036019483133	0.307036019483133	0.307036019483133	0.307036019483133	0.307036019483133	0.307036019483133
0.246502525285902	0.246502525285902	0.246502525285902	0.246502525285902	0.246502525285902	0.246502525285902
0.176361901619694	0.176361901619694	0.176361901619694	0.176361901619694	0.176361901619694	0.176361901619694
0.151978001092406	0.151978001092406	0.151978001092406	0.151978001092406	0.151978001092406	0.151978001092406
0.225322594847947	0.225322594847947	0.225322594847947	0.225322594847947	0.225322594847947	0.225322594847947
0.225552311301805	0.225552311301805	0.225552311301805	0.225552311301805	0.225552311301805	0.225552311301805
0.0823052667888635	0.0823052667888635	0.0823052667888635	0.0823052667888635	0.0823052667888635	0.0823052667888635
0.0750988344517875	0.0750988344517875	0.0750988344517875	0.0750988344517875	0.0750988344517875	0.0750988344517875
0.020649012697395	0.020649012697395	0.020649012697395	0.020649012697395	0.020649012697395	0.020649012697395
0.100724384530395	0.100724384530395	0.100724384530395	0.100724384530395	0.100724384530395	0.100724384530395
0.109402266469238	0.109402266469238	0.109402266469238	0.109402266469238	0.109402266469238	0.109402266469238
0.0878981029624348	0.0878981029624348	0.0878981029624348	0.0878981029624348	0.0878981029624348	0.0878981029624348
0.144975894840287	0.144975894840287	0.144975894840287	0.144975894840287	0.144975894840287	0.144975894840287
0.064946527822547	0.064946527822547	0.064946527822547	0.064946527822547	0.064946527822547	0.064946527822547
0.0517003643303006	0.0517003643303006	0.0517003643303006	0.0517003643303006	0.0517003643303006	0.0517003643303006
0.0597876809710532	0.0597876809710532	0.0597876809710532	0.0597876809710532	0.0597876809710532	0.0597876809710532
0.122249636913462	0.122249636913462	0.122249636913462	0.122249636913462	0.122249636913462	0.122249636913462
0.0177851516501372	0.0177851516501372	0.0177851516501372	0.0177851516501372	0.0177851516501372	0.0177851516501372
0.0237234193035215	0.0237234193035215	0.0237234193035215	0.0237234193035215	0.0237234193035215	0.0237234193035215
0.0893626004494019	0.0893626004494019	0.0893626004494019	0.0893626004494019	0.0893626004494019	0.0893626004494019
-0.00260569437446404	-0.00260569437446404	-0.00260569437446404	-0.00260569437446404	-0.00260569437446404	-0.00260569437446404
0.00944932767184093	0.00944932767184093	0.00944932767184093	0.00944932767184093	0.00944932767184093	0.00944932767184093
-0.0483916642227263	-0.0483916642227263	-0.0483916642227263	-0.0483916642227263	-0.0483916642227263	-0.0483916642227263
-0.000288925455787859	-0.000288925455787859	-0.000288925455787859	-0.000288925455787859	-0.000288925455787859	-0.000288925455787859
-0.0548570670754187	-0.0548570670754187	-0.0548570670754187	-0.0548570670754187	-0.0548570670754187	-0.0548570670754187
-0.0983428589253861	-0.0983428589253861	-0.0983428589253861	-0.0983428589253861	-0.0983428589253861	-0.0983428589253861
-0.0704916344937012	-0.0704916344937012	-0.0704916344937012	-0.0704916344937012	-0.0704916344937012	-0.0704916344937012
0.0620422862383292	0.0620422862383292	0.0620422862383292	0.0620422862383292	0.0620422862383292	0.0620422862383292
0.0320674095329735	0.0320674095329735	0.0320674095329735	0.0320674095329735	0.0320674095329735	0.0320674095329735
-0.0998706348399011	-0.0998706348399011	-0.0998706348399011	-0.0998706348399011	-0.0998706348399011	-0.0998706348399011
-0.0281449279814023	-0.0281449279814023	-0.0281449279814023	-0.0281449279814023	-0.0281449279814023	-0.0281449279814023
0.0201721887948782	0.0201721887948782	0.0201721887948782	0.0201721887948782	0.0201721887948782	0.0201721887948782
0.0777428172668784	0.0777428172668784	0.0777428172668784	0.0777428172668784	0.0777428172668784	0.0777428172668784
0.00619081786368935	0.00619081786368935	0.00619081786368935	0.00619081786368935	0.00619081786368935	0.00619081786368935
-0.100267343871709	-0.100267343871709	-0.100267343871709	-0.100267343871709	-0.100267343871709	-0.100267343871709
-0.100520051836874	-0.100520051836874	-0.100520051836874	-0.100520051836874	-0.100520051836874	-0.100520051836874
0.0546710607625467	0.0546710607625467	0.0546710607625467	0.0546710607625467	0.0546710607625467	0.0546710607625467
-0.00110270881496358	-0.00110270881496358	-0.00110270881496358	-0.00110270881496358	-0.00110270881496358	-0.00110270881496358
0.0780986387684462	0.0780986387684462	0.0780986387684462	0.0780986387684462	0.0780986387684462	0.0780986387684462
0.030170785149513	0.030170785149513	0.030170785149513	0.030170785149513	0.030170785149513	0.030170785149513
-0.0580891800303141	-0.0580891800303141	-0.0580891800303141	-0.0580891800303141	-0.0580891800303141	-0.0580891800303141
-0.0760671227707773	-0.0760671227707773	-0.0760671227707773	-0.0760671227707773	-0.0760671227707773	-0.0760671227707773
0.0644117718526852	0.0644117718526852	0.0644117718526852	0.0644117718526852	0.0644117718526852	0.0644117718526852
0.0239665010030186	0.0239665010030186	0.0239665010030186	0.0239665010030186	0.0239665010030186	0.0239665010030186
0.0478338088677909	0.0478338088677909	0.0478338088677909	0.0478338088677909	0.0478338088677909	0.0478338088677909
0.0932441428232468	0.0932441428232468	0.0932441428232468	0.0932441428232468	0.0932441428232468	0.0932441428232468
-0.0625126876042716	-0.0625126876042716	-0.0625126876042716	-0.0625126876042716	-0.0625126876042716	-0.0625126876042716
0.0682809694067223	0.0682809694067223	0.0682809694067223	0.0682809694067223	0.0682809694067223	0.0682809694067223
0.035749629216418	0.035749629216418	0.035749629216418	0.035749629216418	0.035749629216418	0.035749629216418
0.012646028414897	0.012646028414897	0.012646028414897	0.012646028414897	0.012646028414897	0.012646028414897
-0.0382952727719355	-0.0382952727719355	-0.0382952727719355	-0.0382952727719355	-0.0382952727719355	-0.0382952727719355
0.029747324767614	0.029747324767614	0.029747324767614	0.029747324767614	0.029747324767614	0.029747324767614
-0.0698688442678318	-0.0698688442678318	-0.0698688442678318	-0.0698688442678318	-0.0698688442678318	-0.0698688442678318
0.039387904980432	0.039387904980432	0.039387904980432	0.039387904980432	0.039387904980432	0.039387904980432
-0.00261754698635613	-0.00261754698635613	-0.00261754698635613	-0.00261754698635613	-0.00261754698635613	-0.00261754698635613
0.0598037566660021	0.0598037566660021	0.0598037566660021	0.0598037566660021	0.0598037566660021	0.0598037566660021
-0.00787436175386011	-0.00787436175386011	-0.00787436175386011	-0.00787436175386011	-0.00787436175386011	-0.00787436175386011
0.0139121714946488	0.0139121714946488	0.0139121714946488	0.0139121714946488	0.0139121714946488	0.0139121714946488
0.107392596170503	0.107392596170503	0.107392596170503	0.107392596170503	0.107392596170503	0.107392596170503
0.0678006994733964	0.0678006994733964	0.0678006994733964	0.0678006994733964	0.0678006994733964	0.0678006994733964
-0.0726023037479185	-0.0726023037479185	-0.0726023037479185	-0.0726023037479185	-0.0726023037479185	-0.0726023037479185
0.0345653558158509	0.0345653558158509	0.0345653558158509	0.0345653558158509	0.0345653558158509	0.0345653558158509
0.0424378871691838	0.0424378871691838	0.0424378871691838	0.0424378871691838	0.0424378871691838	0.0424378871691838
0.0442450878159172	0.0442450878159172	0.0442450878159172	0.0442450878159172	0.0442450878159172	0.0442450878159172
-0.0546300968613087	-0.0546300968613087	-0.0546300968613087	-0.0546300968613087	-0.0546300968613087	-0.0546300968613087
-0.0469607437795274	-0.0469607437795274	-0.0469607437795274	-0.0469607437795274	-0.0469607437795274	-0.0469607437795274
-0.0415347344412843	-0.0415347344412843	-0.0415347344412843	-0.0415347344412843	-0.0415347344412843	-0.0415347344412843
0.0455838518230923	0.0455838518230923	0.0455838518230923	0.0455838518230923	0.0455838518230923	0.0455838518230923
0.105845319266403	0.105845319266403	0.105845319266403	0.105845319266403	0.105845319266403	0.105845319266403
0.0110604620541198	0.0110604620541198	0.0110604620541198	0.0110604620541198	0.0110604620541198	0.0110604620541198
0.0280463036125184	0.0280463036125184	0.0280463036125184	0.0280463036125184	0.0280463036125184	0.0280463036125184
-0.0137093466353135	-0.0137093466353135	-0.0137093466353135	-0.0137093466353135	-0.0137093466353135	-0.0137093466353135
0.0406457402834241	0.0406457402834241	0.0406457402834241	0.0406457402834241	0.0406457402834241	0.0406457402834241
-0.0094086218414538	-0.0094086218414538	-0.0094086218414538	-0.0094086218414538	-0.0094086218414538	-0.0094086218414538
-0.072620529257856	-0.072620529257856	-0.072620529257856	-0.072620529257856	-0.072620529257856	-0.072620529257856
0.0968923861118741	0.0968923861118741	0.0968923861118741	0.0968923861118741	0.0968923861118741	0.0968923861118741
0.0539662864150877	0.0539662864150877	0.0539662864150877	0.0539662864150877	0.0539662864150877	0.0539662864150877
-0.0314056557839261	-0.0314056557839261	-0.0314056557839261	-0.0314056557839261	-0.0314056557839261	-0.0314056557839261
0.0755904775269397	0.0755904775269397	0.0755904775269397	0.0755904775269397	0.0755904775269397	0.0755904775269397
0.0539074322998104	0.0539074322998104	0.0539074322998104	0.0539074322998104	0.0539074322998104	0.0539074322998104
0.0695943359018287	0.0695943359018287	0.0695943359018287	0.0695943359018287	0.0695943359018287	0.0695943359018287
0.0411371240416244	0.0411371240416244	0.0411371240416244	0.0411371240416244	0.0411371240416244	0.0411371240416244
0.0586474043631201	0.0586474043631201	0.0586474043631201	0.0586474043631201	0.0586474043631201	0.0586474043631201
0.051010328747908	0.051010328747908	0.051010328747908	0.051010328747908	0.051010328747908	0.051010328747908
0.0805928129957243	0.0805928129957243	0.0805928129957243	0.0805928129957243	0.0805928129957243	0.0805928129957243
0.0210108575003549	0.0210108575003549	0.0210108575003549	0.0210108575003549	0.0210108575003549	0.0210108575003549
-0.015202755672349	-0.015202755672349	-0.015202755672349	-0.015202755672349	-0.015202755672349	-0.015202755672349
-0.0252427512331577	-0.0252427512331577	-0.0252427512331577	-0.0252427512331577	-0.0252427512331577	-0.0252427512331577
0.137926960380117	0.137926960380117	0.137926960380117	0.137926960380117	0.137926960380117	0.137926960380117
0.0471292646553572	0.0471292646553572	0.0471292646553572	0.0471292646553572	0.0471292646553572	0.0471292646553572
0.00646285283885456	0.00646285283885456	0.00646285283885456	0.00646285283885456	0.00646285283885456	0.00646285283885456
0.0815762760404763	0.0815762760404763	0.0815762760404763	0.0815762760404763	0.0815762760404763	0.0815762760404763
-0.0276562516905819	-0.0276562516905819	-0.0276562516905819	-0.0276562516905819	-0.0276562516905819	-0.0276562516905819
0.148538806043002	0.148538806043002	0.148538806043002	0.148538806043002	0.148538806043002	0.148538806043002
0.0602382309052077	0.0602382309052077	0.0602382309052077	0.0602382309052077	0.0602382309052077	0.0602382309052077
0.0624463535779638	0.0624463535779638	0.0624463535779638	0.0624463535779638	0.0624463535779638	0.0624463535779638
0.0283054705652055	0.0283054705652055	0.0283054705652055	0.0283054705652055	0.0283054705652055	0.0283054705652055
0.182263240601357	0.182263240601357	0.182263240601357	0.182263240601357	0.182263240601357	0.182263240601357
0.0449710269137899	0.0449710269137899	0.0449710269137899	0.0449710269137899	0.0449710269137899	0.0449710269137899
0.13930184472756	0.13930184472756	0.13930184472756	0.13930184472756	0.13930184472756	0.13930184472756
0.111637418778523	0.111637418778523	0.111637418778523	0.111637418778523	0.111637418778523	0.111637418778523
0.100572415611109	0.100572415611109	0.100572415611109	0.100572415611109	0.100572415611109	0.100572415611109
0.239153878436701	0.239153878436701	0.239153878436701	0.239153878436701	0.239153878436701	0.239153878436701
0.202566761483061	0.202566761483061	0.202566761483061	0.202566761483061	0.202566761483061	0.202566761483061
0.280215802975364	0.280215802975364	0.280215802975364	0.280215802975364	0.280215802975364	0.280215802975364
0.279758396509435	0.279758396509435	0.279758396509435	0.279758396509435	0.279758396509435	0.279758396509435
0.185468894580022	0.185468894580022	0.185468894580022	0.185468894580022	0.185468894580022	0.185468894580022
0.324564161044368	0.324564161044368	0.324564161044368	0.324564161044368	0.324564161044368	0.324564161044368
0.282983130287113	0.282983130287113	0.282983130287113	0.282983130287113	0.282983130287113	0.282983130287113
0.32137521000896	0.32137521000896	0.32137521000896	0.32137521000896	0.32137521000896	0.32137521000896
0.292881768185086	0.292881768185086	0.292881768185086	0.292881768185086	0.292881768185086	0.292881768185086
0.331613071022759	0.331613071022759	0.331613071022759	0.331613071022759	0.331613071022759	0.331613071022759
0.32470006606144	0.32470006606144	0.32470006606144	0.32470006606144	0.32470006606144	0.32470006606144
0.351189642596692	0.351189642596692	0.351189642596692	0.351189642596692	0.351189642596692	0.351189642596692
0.238785998382139	0.238785998382139	0.238785998382139	0.238785998382139	0.238785998382139	0.238785998382139
0.278675111905431	0.278675111905431	0.278675111905431	0.278675111905431	0.278675111905431	0.278675111905431
0.228047252084589	0.228047252084589	0.228047252084589	0.228047252084589	0.228047252084589	0.228047252084589
0.305039746765114	0.305039746765114	0.305039746765114	0.305039746765114	0.305039746765114	0.305039746765114
0.218669699653595	0.218669699653595	0.218669699653595	0.218669699653595	0.218669699653595	0.218669699653595
0.359961225604529	0.359961225604529	0.359961225604529	0.359961225604529	0.359961225604529	0.359961225604529
0.218066348021094	0.218066348021094	0.218066348021094	0.218066348021094	0.218066348021094	0.218066348021094
0.315110420727435	0.315110420727435	0.315110420727435	0.315110420727435	0.315110420727435	0.315110420727435
0.236295720513447	0.236295720513447	0.236295720513447	0.236295720513447	0.236295720513447	0.236295720513447
0.264124481723882	0.264124481723882	0.264124481723882	0.264124481723882	0.264124481723882	0.264124481723882
0.255465574897727	0.255465574897727	0.255465574897727	0.255465574897727	0.255465574897727	0.255465574897727
0.129558752193651	0.129558752193651	0.129558752193651	0.129558752193651	0.129558752193651	0.129558752193651
0.219626144983913	0.219626144983913	0.219626144983913	0.219626144983913	0.219626144983913	0.219626144983913
0.187967768529712	0.187967768529712	0.187967768529712	0.187967768529712	0.187967768529712	0.187967768529712
0.157234150786583	0.157234150786583	0.157234150786583	0.157234150786583	0.157234150786583	0.157234150786583
0.0952547261246155	0.0952547261246155	0.0952547261246155	0.0952547261246155	0.0952547261246155	0.0952547261246155
0.179968155959611	0.179968155959611	0.179968155959611	0.179968155959611	0.179968155959611	0.179968155959611
0.04673710043717	0.04673710043717	0.04673710043717	0.04673710043717	0.04673710043717	0.04673710043717
0.16558687914503	0.16558687914503	0.16558687914503	0.16558687914503	0.16558687914503	0.16558687914503
0.0571488369402695	0.0571488369402695	0.0571488369402695	0.0571488369402695	0.0571488369402695	0.0571488369402695
0.0637226496616739	0.0637226496616739	0.0637226496616739	0.0637226496616739	0.0637226496616739	0.0637226496616739
-0.0194711336012905	-0.0194711336012905	-0.0194711336012905	-0.0194711336012905	-0.0194711336012905	-0.0194711336012905
-0.0138370728855429	-0.0138370728855429	-0.0138370728855429	-0.0138370728855429	-0.0138370728855429	-0.0138370728855429
-0.033246689957031	-0.033246689957031	-0.033246689957031	-0.033246689957031	-0.033246689957031	-0.033246689957031
-0.0174590471866486	-0.0174590471866486	-0.0174590471866486	-0.0174590471866486	-0.0174590471866486	-0.0174590471866486
-0.00234803792696639	-0.00234803792696639	-0.00234803792696639	-0.00234803792696639	-0.00234803792696639	-0.00234803792696639
0.0329730315319376	0.0329730315319376	0.0329730315319376	0.0329730315319376	0.0329730315319376	0.0329730315319376
0.0785502562860912	0.0785502562860912	0.0785502562860912	0.0785502562860912	0.0785502562860912	0.0785502562860912
-0.0272117489507235	-0.0272117489507235	-0.0272117489507235	-0.0272117489507235	-0.0272117489507235	-0.0272117489507235
-0.0244550848759201	-0.0244550848759201	-0.0244550848759201	-0.0244550848759201	-0.0244550848759201	-0.0244550848759201
0.0420772661448442	0.0420772661448442	0.0420772661448442	0.0420772661448442	0.0420772661448442	0.0420772661448442
0.0480307531002418	0.0480307531002418	0.0480307531002418	0.0480307531002418	0.0480307531002418	0.0480307531002418
-0.13153228276792	-0.13153228276792	-0.13153228276792	-0.13153228276792	-0.13153228276792	-0.13153228276792
-0.162193518239	-0.162193518239	-0.162193518239	-0.162193518239	-0.162193518239	-0.162193518239
-0.112223824099192	-0.112223824099192	-0.112223824099192	-0.112223824099192	-0.112223824099192	-0.112223824099192
-0.213828736927191	-0.213828736927191	-0.213828736927191	-0.213828736927191	-0.213828736927191	-0.213828736927191
-0.123253219656081	-0.123253219656081	-0.123253219656081	-0.123253219656081	-0.123253219656081	-0.123253219656081
-0.173310705014703	-0.173310705014703	-0.173310705014703	-0.173310705014703	-0.173310705014703	-0.173310705014703
-0.1383473950753	-0.1383473950753	-0.1383473950753	-0.1383473950753	-0.1383473950753	-0.1383473950753
-0.165413077547849	-0.165413077547849	-0.165413077547849	-0.165413077547849	-0.165413077547849	-0.165413077547849
-0.0255273401045428	-0.0255273401045428	-0.0255273401045428	-0.0255273401045428	-0.0255273401045428	-0.0255273401045428
0.183496786543657	0.183496786543657	0.183496786543657	0.183496786543657	0.183496786543657	0.183496786543657
0.362936286971084	0.362936286971084	0.362936286971084	0.362936286971084	0.362936286971084	0.362936286971084
0.476125968292495	0.476125968292495	0.476125968292495	0.476125968292495	0.476125968292495	0.476125968292495
0.610442362800448	0.610442362800448	0.610442362800448	0.610442362800448	0.610442362800448	0.610442362800448
0.855768024761272	0.855768024761272	0.855768024761272	0.855768024761272	0.855768024761272	0.855768024761272
1.00773726695622	1.00773726695622	1.00773726695622	1.00773726695622	1.00773726695622	1.00773726695622
1.14431328573821	1.14431328573821	1.14431328573821	1.14431328573821	1.14431328573821	1.14431328573821
1.13392258175372	1.13392258175372	1.13392258175372	1.13392258175372	1.13392258175372	1.13392258175372
1.11480215585464	1.11480215585464	1.11480215585464	1.11480215585464	1.11480215585464	1.11480215585464
0.952883359258236	0.952883359258236	0.952883359258236	0.952883359258236	0.952883359258236	0.952883359258236
0.941478511518317	0.941478511518317	0.941478511518317	0.941478511518317	0.941478511518317	0.941478511518317
0.673136420426441	0.673136420426441	0.673136420426441	0.673136420426441	0.673136420426441	0.673136420426441
0.365935424652649	0.365935424652649	0.365935424652649	0.365935424652649	0.365935424652649	0.365935424652649
0.298824860359032	0.298824860359032	0.298824860359032	0.298824860359032	0.298824860359032	0.298824860359032
0.108562803545095	0.108562803545095	0.108562803545095	0.108562803545095	0.108562803545095	0.108562803545095
-0.164483449618741	-0.164483449618741	-0.164483449618741	-0.164483449618741	-0.164483449618741	-0.164483449618741
-0.264320172609897	-0.264320172609897	-0.264320172609897	-0.264320172609897	-0.264320172609897	-0.264320172609897
-0.235927928995684	-0.235927928995684	-0.235927928995684	-0.235927928995684	-0.235927928995684	-0.235927928995684
-0.379921184730682	-0.379921184730682	-0.379921184730682	-0.379921184730682	-0.379921184730682	-0.379921184730682
-0.173202283171556	-0.173202283171556	-0.173202283171556	-0.173202283171556	-0.173202283171556	-0.173202283171556
-0.258238755899349	-0.258238755899349	-0.258238755899349	-0.258238755899349	-0.258238755899349	-0.258238755899349
-0.28310970593756	-0.28310970593756	-0.28310970593756	-0.28310970593756	-0.28310970593756	-0.28310970593756
-0.24342555765038	-0.24342555765038	-0.24342555765038	-0.24342555765038	-0.24342555765038	-0.24342555765038
-0.164538734910465	-0.164538734910465	-0.164538734910465	-0.164538734910465	-0.164538734910465	-0.164538734910465
-0.108268750113586	-0.108268750113586	-0.108268750113586	-0.108268750113586	-0.108268750113586	-0.108268750113586
-0.13680907357158	-0.13680907357158	-0.13680907357158	-0.13680907357158	-0.13680907357158	-0.13680907357158
-0.105258719381755	-0.105258719381755	-0.105258719381755	-0.105258719381755	-0.105258719381755	-0.105258719381755
-0.0291628447247825	-0.0291628447247825	-0.0291628447247825	-0.0291628447247825	-0.0291628447247825	-0.0291628447247825
-0.0631550439424989	-0.0631550439424989	-0.0631550439424989	-0.0631550439424989	-0.0631550439424989	-0.0631550439424989
-0.0364886542579939	-0.0364886542579939	-0.0364886542579939	-0.0364886542579939	-0.0364886542579939	-0.0364886542579939
0.0521206797596182	0.0521206797596182	0.0521206797596182	0.0521206797596182	0.0521206797596182	0.0521206797596182
0.0197686977129402	0.0197686977129402	0.0197686977129402	0.0197686977129402	0.0197686977129402	0.0197686977129402
0.00203708345059417	0.00203708345059417	0.00203708345059417	0.00203708345059417	0.00203708345059417	0.00203708345059417
0.0877989474040878	0.0877989474040878	0.0877989474040878	0.0877989474040878	0.0877989474040878	0.0877989474040878
0.0100420075277417	0.0100420075277417	0.0100420075277417	0.0100420075277417	0.0100420075277417	0.0100420075277417
-0.080636317211225	-0.080636317211225	-0.080636317211225	-0.080636317211225	-0.080636317211225	-0.080636317211225
-0.0568096781899953	-0.0568096781899953	-0.0568096781899953	-0.0568096781899953	-0.0568096781899953	-0.0568096781899953
-0.0720430230331885	-0.0720430230331885	-0.0720430230331885	-0.0720430230331885	-0.0720430230331885	-0.0720430230331885
0.066463445708304	0.066463445708304	0.066463445708304	0.066463445708304	0.066463445708304	0.066463445708304
0.0136573078482013	0.0136573078482013	0.0136573078482013	0.0136573078482013	0.0136573078482013	0.0136573078482013
0.067630132415959	0.067630132415959	0.067630132415959	0.067630132415959	0.067630132415959	0.067630132415959
-0.0187155036054808	-0.0187155036054808	-0.0187155036054808	-0.0187155036054808	-0.0187155036054808	-0.0187155036054808
0.0819735871413005	0.0819735871413005	0.0819735871413005	0.0819735871413005	0.0819735871413005	0.0819735871413005
-0.0344379831812854	-0.0344379831812854	-0.0344379831812854	-0.0344379831812854	-0.0344379831812854	-0.0344379831812854
-0.00509812411105896	-0.00509812411105896	-0.00509812411105896	-0.00509812411105896	-0.00509812411105896	-0.00509812411105896
0.0473552745220422	0.0473552745220422	0.0473552745220422	0.0473552745220422	0.0473552745220422	0.0473552745220422
-0.00164778588746964	-0.00164778588746964	-0.00164778588746964	-0.00164778588746964	-0.00164778588746964	-0.00164778588746964
0.133562537202044	0.133562537202044	0.133562537202044	0.133562537202044	0.133562537202044	0.133562537202044
0.051582622594548	0.051582622594548	0.051582622594548	0.051582622594548	0.051582622594548	0.051582622594548
0.176698742346353	0.176698742346353	0.176698742346353	0.176698742346353	0.176698742346353	0.176698742346353
0.193495749366038	0.193495749366038	0.193495749366038	0.193495749366038	0.193495749366038	0.193495749366038
0.0968116743087662	0.0968116743087662	0.0968116743087662	0.0968116743087662	0.0968116743087662	0.0968116743087662
0.169410583032105	0.169410583032105	0.169410583032105	0.169410583032105	0.169410583032105	0.169410583032105
0.0671407174762133	0.0671407174762133	0.0671407174762133	0.0671407174762133	0.0671407174762133	0.0671407174762133
0.173216823477625	0.173216823477625	0.173216823477625	0.173216823477625	0.173216823477625	0.173216823477625
0.282733878873586	0.282733878873586	0.282733878873586	0.282733878873586	0.282733878873586	0.282733878873586
0.156012264340778	0.156012264340778	0.156012264340778	0.156012264340778	0.156012264340778	0.156012264340778
0.207343110596604	0.207343110596604	0.207343110596604	0.207343110596604	0.207343110596604	0.207343110596604
0.206532512328452	0.206532512328452	0.206532512328452	0.206532512328452	0.206532512328452	0.206532512328452
0.19316746247163	0.19316746247163	0.19316746247163	0.19316746247163	0.19316746247163	0.19316746247163
0.316591023237057	0.316591023237057	0.316591023237057	0.316591023237057	0.316591023237057	0.316591023237057
0.326397677920366	0.326397677920366	0.326397677920366	0.326397677920366	0.326397677920366	0.326397677920366
0.402383329091571	0.402383329091571	0.402383329091571	0.402383329091571	0.402383329091571	0.402383329091571
0.250058524189071	0.250058524189071	0.250058524189071	0.250058524189071	0.250058524189071	0.250058524189071
0.319994429122402	0.319994429122402	0.319994429122402	0.319994429122402	0.319994429122402	0.319994429122402
0.460568876718809	0.460568876718809	0.460568876718809	0.460568876718809	0.460568876718809	0.460568876718809
0.408263349205233	0.408263349205233	0.408263349205233	0.408263349205233	0.408263349205233	0.408263349205233
0.330902188526659	0.330902188526659	0.330902188526659	0.330902188526659	0.330902188526659	0.330902188526659
0.434958975798755	0.434958975798755	0.434958975798755	0.434958975798755	0.434958975798755	0.434958975798755
0.341283840115379	0.341283840115379	0.341283840115379	0.341283840115379	0.341283840115379	0.341283840115379
0.486138561990964	0.486138561990964	0.486138561990964	0.486138561990964	0.486138561990964	0.486138561990964
0.377833767974432	0.377833767974432	0.377833767974432	0.377833767974432	0.377833767974432	0.377833767974432
0.346038002070627	0.346038002070627	0.346038002070627	0.346038002070627	0.346038002070627	0.346038002070627
0.368882302133433	0.368882302133433	0.368882302133433	0.368882302133433	0.368882302133433	0.368882302133433
0.365628985145233	0.365628985145233	0.365628985145233	0.365628985145233	0.365628985145233	0.365628985145233
0.462333466773657	0.462333466773657	0.462333466773657	0.462333466773657	0.462333466773657	0.462333466773657
0.434748442246149	0.434748442246149	0.434748442246149	0.434748442246149	0.434748442246149	0.434748442246149
0.456138042045415	0.456138042045415	0.456138042045415	0.456138042045415	0.456138042045415	0.456138042045415
0.432325126435751	0.432325126435751	0.432325126435751	0.432325126435751	0.432325126435751	0.432325126435751
0.417176290309025	0.417176290309025	0.417176290309025	0.417176290309025	0.417176290309025	0.417176290309025
0.505573190351278	0.505573190351278	0.505573190351278	0.505573190351278	0.505573190351278	0.505573190351278
0.525893234577584	0.525893234577584	0.525893234577584	0.525893234577584	0.525893234577584	0.525893234577584
0.352228041216944	0.352228041216944	0.352228041216944	0.352228041216944	0.352228041216944	0.352228041216944
0.328831779792433	0.328831779792433	0.328831779792433	0.328831779792433	0.328831779792433	0.328831779792433
0.467234825633278	0.467234825633278	0.467234825633278	0.467234825633278	0.467234825633278	0.467234825633278
0.452772349780959	0.452772349780959	0.452772349780959	0.452772349780959	0.452772349780959	0.452772349780959
0.34266977940602	0.34266977940602	0.34266977940602	0.34266977940602	0.34266977940602	0.34266977940602
0.278895943582883	0.278895943582883	0.278895943582883	0.278895943582883	0.278895943582883	0.278895943582883
0.358749016267886	0.358749016267886	0.358749016267886	0.358749016267886	0.358749016267886	0.358749016267886
0.338755962448979	0.338755962448979	0.338755962448979	0.338755962448979	0.338755962448979	0.338755962448979
0.314466202413672	0.314466202413672	0.314466202413672	0.314466202413672	0.314466202413672	0.314466202413672
0.226527957819008	0.226527957819008	0.226527957819008	0.226527957819008	0.226527957819008	0.226527957819008
0.288557121415142	0.288557121415142	0.288557121415142	0.288557121415142	0.288557121415142	0.288557121415142
0.149571754728435	0.149571754728435	0.149571754728435	0.149571754728435	0.149571754728435	0.149571754728435
0.189919671480451	0.189919671480451	0.189919671480451	0.189919671480451	0.189919671480451	0.189919671480451
0.148925423927744	0.148925423927744	0.148925423927744	0.148925423927744	0.148925423927744	0.148925423927744
0.139551111878333	0.139551111878333	0.139551111878333	0.139551111878333	0.139551111878333	0.139551111878333
0.157086799804685	0.157086799804685	0.157086799804685	0.157086799804685	0.157086799804685	0.157086799804685
0.112111804721228	0.112111804721228	0.112111804721228	0.112111804721228	0.112111804721228	0.112111804721228
0.0879092410761801	0.0879092410761801	0.0879092410761801	0.0879092410761801	0.0879092410761801	0.0879092410761801
0.00736463358887308	0.00736463358887308	0.00736463358887308	0.00736463358887308	0.00736463358887308	0.00736463358887308
0.0800741608381169	0.0800741608381169	0.0800741608381169	0.0800741608381169	0.0800741608381169	0.0800741608381169
0.155103522617415	0.155103522617415	0.155103522617415	0.155103522617415	0.155103522617415	0.155103522617415
0.00397882317762786	0.00397882317762786	0.00397882317762786	0.00397882317762786	0.00397882317762786	0.00397882317762786
0.106350935706113	0.106350935706113	0.106350935706113	0.106350935706113	0.106350935706113	0.106350935706113
0.0699334167450433	0.0699334167450433	0.0699334167450433	0.0699334167450433	0.0699334167450433	0.0699334167450433
0.115487622492281	0.115487622492281	0.115487622492281	0.115487622492281	0.115487622492281	0.115487622492281
0.0843810512114957	0.0843810512114957	0.0843810512114957	0.0843810512114957	0.0843810512114957	0.0843810512114957
-0.0370271390267748	-0.0370271390267748	-0.0370271390267748	-0.0370271390267748	-0.0370271390267748	-0.0370271390267748
-0.0834652749807028	-0.0834652749807028	-0.0834652749807028	-0.0834652749807028	-0.0834652749807028	-0.0834652749807028
0.0550224461961697	0.0550224461961697	0.0550224461961697	0.0550224461961697	0.0550224461961697	0.0550224461961697
0.0218742065909694	0.0218742065909694	0.0218742065909694	0.0218742065909694	0.0218742065909694	0.0218742065909694
-0.0463660911875296	-0.0463660911875296	-0.0463660911875296	-0.0463660911875296	-0.0463660911875296	-0.0463660911875296
-0.0424753696325686	-0.0424753696325686	-0.0424753696325686	-0.0424753696325686	-0.0424753696325686	-0.0424753696325686
0.0654454891768221	0.0654454891768221	0.0654454891768221	0.0654454891768221	0.0654454891768221	0.0654454891768221
0.0104071043419629	0.0104071043419629	0.0104071043419629	0.0104071043419629	0.0104071043419629	0.0104071043419629
-0.121158439420679	-0.121158439420679	-0.121158439420679	-0.121158439420679	-0.121158439420679	-0.121158439420679
-0.0776271679221142	-0.0776271679221142	-0.0776271679221142	-0.0776271679221142	-0.0776271679221142	-0.0776271679221142
0.0312444736368023	0.0312444736368023	0.0312444736368023	0.0312444736368023	0.0312444736368023	0.0312444736368023
-0.0668075155992198	-0.0668075155992198	-0.0668075155992198	-0.0668075155992198	-0.0668075155992198	-0.0668075155992198
-0.0281627101854857	-0.0281627101854857	-0.0281627101854857	-0.0281627101854857	-0.0281627101854857	-0.0281627101854857
0.0393113182400124	0.0393113182400124	0.0393113182400124	0.0393113182400124	0.0393113182400124	0.0393113182400124
-0.130153005065334	-0.130153005065334	-0.130153005065334	-0.130153005065334	-0.130153005065334	-0.130153005065334
0.0158136205075044	0.0158136205075044	0.0158136205075044	0.0158136205075044	0.0158136205075044	0.0158136205075044
-0.127622454744977	-0.127622454744977	-0.127622454744977	-0.127622454744977	-0.127622454744977	-0.127622454744977
0.0404863184807787	0.0404863184807787	0.0404863184807787	0.0404863184807787	0.0404863184807787	0.0404863184807787
-0.0660161877821339	-0.0660161877821339	-0.0660161877821339	-0.0660161877821339	-0.0660161877821339	-0.0660161877821339
-0.00239874413195879	-0.00239874413195879	-0.00239874413195879	-0.00239874413195879	-0.00239874413195879	-0.00239874413195879
-0.0878525921021938	-0.0878525921021938	-0.0878525921021938	-0.0878525921021938	-0.0878525921021938	-0.0878525921021938
-0.0851809737923079	-0.0851809737923079	-0.0851809737923079	-0.0851809737923079	-0.0851809737923079	-0.0851809737923079
-0.0830811896629404	-0.0830811896629404	-0.0830811896629404	-0.0830811896629404	-0.0830811896629404	-0.0830811896629404
-0.0422053239703995	-0.0422053239703995	-0.0422053239703995	-0.0422053239703995	-0.0422053239703995	-0.0422053239703995
-0.15265633241381	-0.15265633241381	-0.15265633241381	-0.15265633241381	-0.15265633241381	-0.15265633241381
0.0458955656492987	0.0458955656492987	0.0458955656492987	0.0458955656492987	0.0458955656492987	0.0458955656492987
-0.132554220961951	-0.132554220961951	-0.132554220961951	-0.132554220961951	-0.132554220961951	-0.132554220961951
-0.0859454933267151	-0.0859454933267151	-0.0859454933267151	-0.0859454933267151	-0.0859454933267151	-0.0859454933267151
0.0254878774937126	0.0254878774937126	0.0254878774937126	0.0254878774937126	0.0254878774937126	0.0254878774937126
0.0163455208125046	0.0163455208125046	0.0163455208125046	0.0163455208125046	0.0163455208125046	0.0163455208125046
0.0442887927564766	0.0442887927564766	0.0442887927564766	0.0442887927564766	0.0442887927564766	0.0442887927564766
-0.0177979606441089	-0.0177979606441089	-0.0177979606441089	-0.0177979606441089	-0.0177979606441089	-0.0177979606441089
0.000332473134871863	0.000332473134871863	0.000332473134871863	0.000332473134871863	0.000332473134871863	0.000332473134871863
0.0450696692546882	0.0450696692546882	0.0450696692546882	0.0450696692546882	0.0450696692546882	0.0450696692546882
-0.081137192789367	-0.081137192789367	-0.081137192789367	-0.081137192789367	-0.081137192789367	-0.081137192789367
0.00875845397836116	0.00875845397836116	0.00875845397836116	0.00875845397836116	0.00875845397836116	0.00875845397836116
-0.0746157874105269	-0.0746157874105269	-0.0746157874105269	-0.0746157874105269	-0.0746157874105269	-0.0746157874105269
-0.0788585372467883	-0.0788585372467883	-0.0788585372467883	-0.0788585372467883	-0.0788585372467883	-0.0788585372467883
0.0378006306470286	0.0378006306470286	0.0378006306470286	0.0378006306470286	0.0378006306470286	0.0378006306470286
-0.0862240947631002	-0.0862240947631002	-0.0862240947631002	-0.0862240947631002	-0.0862240947631002	-0.0862240947631002
-0.0258194357018214	-0.0258194357018214	-0.0258194357018214	-0.0258194357018214	-0.0258194357018214	-0.0258194357018214
-0.069592061885633	-0.069592061885633	-0.069592061885633	-0.069592061885633	-0.069592061885633	-0.069592061885633
0.00504002292468068	0.00504002292468068	0.00504002292468068	0.00504002292468068	0.00504002292468068	0.00504002292468068
-0.0937214592215226	-0.0937214592215226	-0.0937214592215226	-0.0937214592215226	-0.0937214592215226	-0.0937214592215226
-0.0951871546796431	-0.0951871546796431	-0.0951871546796431	-0.0951871546796431	-0.0951871546796431	-0.0951871546796431
0.00110887251780019	0.00110887251780019	0.00110887251780019	0.00110887251780019	0.00110887251780019	0.00110887251780019
-0.0514871073736966	-0.0514871073736966	-0.0514871073736966	-0.0514871073736966	-0.0514871073736966	-0.0514871073736966
-0.108099263591342	-0.108099263591342	-0.108099263591342	-0.108099263591342	-0.108099263591342	-0.108099263591342
0.0217384363844783	0.0217384363844783	0.0217384363844783	0.0217384363844783	0.0217384363844783	0.0217384363844783
-0.0667616793454769	-0.0667616793454769	-0.0667616793454769	-0.0667616793454769	-0.0667616793454769	-0.0667616793454769
-0.0768211881312828	-0.0768211881312828	-0.0768211881312828	-0.0768211881312828	-0.0768211881312828	-0.0768211881312828
-0.0236766977120953	-0.0236766977120953	-0.0236766977120953	-0.0236766977120953	-0.0236766977120953	-0.0236766977120953
-0.0370793827425829	-0.0370793827425829	-0.0370793827425829	-0.0370793827425829	-0.0370793827425829	-0.0370793827425829
-0.0137993748476388	-0.0137993748476388	-0.0137993748476388	-0.0137993748476388	-0.0137993748476388	-0.0137993748476388
-0.0351236399204331	-0.0351236399204331	-0.0351236399204331	-0.0351236399204331	-0.0351236399204331	-0.0351236399204331
-0.050266615289767	-0.050266615289767	-0.050266615289767	-0.050266615289767	-0.050266615289767	-0.050266615289767
-0.0907836971250556	-0.0907836971250556	-0.0907836971250556	-0.0907836971250556	-0.0907836971250556	-0.0907836971250556
0.00199103953221021	0.00199103953221021	0.00199103953221021	0.00199103953221021	0.00199103953221021	0.00199103953221021
-0.0158802108283048	-0.0158802108283048	-0.0158802108283048	-0.0158802108283048	-0.0158802108283048	-0.0158802108283048
-0.0677787799515674	-0.0677787799515674	-0.0677787799515674	-0.0677787799515674	-0.0677787799515674	-0.0677787799515674
0.0429495179182548	0.0429495179182548	0.0429495179182548	0.0429495179182548	0.0429495179182548	0.0429495179182548
-0.00690481939899951	-0.00690481939899951	-0.00690481939899951	-0.00690481939899951	-0.00690481939899951	-0.00690481939899951
-0.0826588941305658	-0.0826588941305658	-0.0826588941305658	-0.0826588941305658	-0.0826588941305658	-0.0826588941305658
0.0072861855334449	0.0072861855334449	0.0072861855334449	0.0072861855334449	0.0072861855334449	0.0072861855334449
0.0504508183320384	0.0504508183320384	0.0504508183320384	0.0504508183320384	0.0504508183320384	0.0504508183320384
-0.0454609336341891	-0.0454609336341891	-0.0454609336341891	-0.0454609336341891	-0.0454609336341891	-0.0454609336341891
0.00531174281004363	0.00531174281004363	0.00531174281004363	0.00531174281004363	0.00531174281004363	0.00531174281004363
-0.105735107303946	-0.105735107303946	-0.105735107303946	-0.105735107303946	-0.105735107303946	-0.105735107303946
-0.0657471346666567	-0.0657471346666567	-0.0657471346666567	-0.0657471346666567	-0.0657471346666567	-0.0657471346666567
0.0385276524395027	0.0385276524395027	0.0385276524395027	0.0385276524395027	0.0385276524395027	0.0385276524395027
0.0202523330224363	0.0202523330224363	0.0202523330224363	0.0202523330224363	0.0202523330224363	0.0202523330224363
-0.144076468015011	-0.144076468015011	-0.144076468015011	-0.144076468015011	-0.144076468015011	-0.144076468015011
-0.0643824292683464	-0.0643824292683464	-0.0643824292683464	-0.0643824292683464	-0.0643824292683464	-0.0643824292683464
0.0197940180279245	0.0197940180279245	0.0197940180279245	0.0197940180279245	0.0197940180279245	0.0197940180279245
0.0177572905520033	0.0177572905520033	0.0177572905520033	0.0177572905520033	0.0177572905520033	0.0177572905520033
-0.105400807887458	-0.105400807887458	-0.105400807887458	-0.105400807887458	-0.105400807887458	-0.105400807887458
0.0418083426233597	0.0418083426233597	0.0418083426233597	0.0418083426233597	0.0418083426233597	0.0418083426233597
-0.0759639709021635	-0.0759639709021635	-0.0759639709021635	-0.0759639709021635	-0.0759639709021635	-0.0759639709021635
-0.0463496488941537	-0.0463496488941537	-0.0463496488941537	-0.0463496488941537	-0.0463496488941537	-0.0463496488941537
0.0121462623346412	0.0121462623346412	0.0121462623346412	0.0121462623346412	0.0121462623346412	0.0121462623346412
0.0801532139219545	0.0801532139219545	0.0801532139219545	0.0801532139219545	0.0801532139219545	0.0801532139219545
0.06438453081961	0.06438453081961	0.06438453081961	0.06438453081961	0.06438453081961	0.06438453081961
-0.0740801342183005	-0.0740801342183005	-0.0740801342183005	-0.0740801342183005	-0.0740801342183005	-0.0740801342183005
0.0369646489713776	0.0369646489713776	0.0369646489713776	0.0369646489713776	0.0369646489713776	0.0369646489713776
-0.0422098987430102	-0.0422098987430102	-0.0422098987430102	-0.0422098987430102	-0.0422098987430102	-0.0422098987430102
-0.0501754948834956	-0.0501754948834956	-0.0501754948834956	-0.0501754948834956	-0.0501754948834956	-0.0501754948834956
0.0199222941601897	0.0199222941601897	0.0199222941601897	0.0199222941601897	0.0199222941601897	0.0199222941601897
0.109024777822246	0.109024777822246	0.109024777822246	0.109024777822246	0.109024777822246	0.109024777822246
0.0590724707863691	0.0590724707863691	0.0590724707863691	0.0590724707863691	0.0590724707863691	0.0590724707863691
0.139622718977464	0.139622718977464	0.139622718977464	0.139622718977464	0.139622718977464	0.139622718977464
0.0739432698824208	0.0739432698824208	0.0739432698824208	0.0739432698824208	0.0739432698824208	0.0739432698824208
0.22027687952224	0.22027687952224	0.22027687952224	0.22027687952224	0.22027687952224	0.22027687952224
0.248547245842661	0.248547245842661	0.248547245842661	0.248547245842661	0.248547245842661	0.248547245842661
0.150482908852887	0.150482908852887	0.150482908852887	0.150482908852887	0.150482908852887	0.150482908852887
0.228887235133988	0.228887235133988	0.228887235133988	0.228887235133988	0.228887235133988	0.228887235133988
0.304182936514885	0.304182936514885	0.304182936514885	0.304182936514885	0.304182936514885	0.304182936514885
0.172033335034744	0.172033335034744	0.172033335034744	0.172033335034744	0.172033335034744	0.172033335034744
0.151905092156569	0.151905092156569	0.151905092156569	0.151905092156569	0.151905092156569	0.151905092156569
0.272726004527448	0.272726004527448	0.272726004527448	0.272726004527448	0.272726004527448	0.272726004527448
0.245926693416062	0.245926693416062	0.245926693416062	0.245926693416062	0.245926693416062	0.245926693416062
0.187560698959439	0.187560698959439	0.187560698959439	0.187560698959439	0.187560698959439	0.187560698959439
0.14723444704606	0.14723444704606	0.14723444704606	0.14723444704606	0.14723444704606	0.14723444704606
0.285276428341929	0.285276428341929	0.285276428341929	0.285276428341929	0.285276428341929	0.285276428341929
0.295945536071231	0.295945536071231	0.295945536071231	0.295945536071231	0.295945536071231	0.295945536071231
0.245431146555589	0.245431146555589	0.245431146555589	0.245431146555589	0.245431146555589	0.245431146555589
0.21448094462945	0.21448094462945	0.21448094462945	0.21448094462945	0.21448094462945	0.21448094462945
0.136605750540541	0.136605750540541	0.136605750540541	0.136605750540541	0.136605750540541	0.136605750540541
0.253194315050531	0.253194315050531	0.253194315050531	0.253194315050531	0.253194315050531	0.253194315050531
0.0559445868804255	0.0559445868804255	0.0559445868804255	0.0559445868804255	0.0559445868804255	0.0559445868804255
0.153240070907408	0.153240070907408	0.153240070907408	0.153240070907408	0.153240070907408	0.153240070907408
0.0786476338807925	0.0786476338807925	0.0786476338807925	0.0786476338807925	0.0786476338807925	0.0786476338807925
0.110705393394402	0.110705393394402	0.110705393394402	0.110705393394402	0.110705393394402	0.110705393394402
0.135144738103234	0.135144738103234	0.135144738103234	0.135144738103234	0.135144738103234	0.135144738103234
0.159451945038108	0.159451945038108	0.159451945038108	0.159451945038108	0.159451945038108	0.159451945038108
0.0493296964124582	0.0493296964124582	0.0493296964124582	0.0493296964124582	0.0493296964124582	0.0493296964124582
0.108884507931897	0.108884507931897	0.108884507931897	0.108884507931897	0.108884507931897	0.108884507931897
0.082881577373456	0.082881577373456	0.082881577373456	0.082881577373456	0.082881577373456	0.082881577373456
-0.0344977086102702	-0.0344977086102702	-0.0344977086102702	-0.0344977086102702	-0.0344977086102702	-0.0344977086102702
-0.108459588282336	-0.108459588282336	-0.108459588282336	-0.108459588282336	-0.108459588282336	-0.108459588282336
-0.0469753723698149	-0.0469753723698149	-0.0469753723698149	-0.0469753723698149	-0.0469753723698149	-0.0469753723698149
-0.0645710169442962	-0.0645710169442962	-0.0645710169442962	-0.0645710169442962	-0.0645710169442962	-0.0645710169442962
-0.110360878219882	-0.110360878219882	-0.110360878219882	-0.110360878219882	-0.110360878219882	-0.110360878219882
0.00961752743219287	0.00961752743219287	0.00961752743219287	0.00961752743219287	0.00961752743219287	0.00961752743219287
0.0353490786689961	0.0353490786689961	0.0353490786689961	0.0353490786689961	0.0353490786689961	0.0353490786689961
-0.0592937657527396	-0.0592937657527396	-0.0592937657527396	-0.0592937657527396	-0.0592937657527396	-0.0592937657527396
-0.155527193159718	-0.155527193159718	-0.155527193159718	-0.155527193159718	-0.155527193159718	-0.155527193159718
-0.0960328915048252	-0.0960328915048252	-0.0960328915048252	-0.0960328915048252	-0.0960328915048252	-0.0960328915048252
-0.00291764626292529	-0.00291764626292529	-0.00291764626292529	-0.00291764626292529	-0.00291764626292529	-0.00291764626292529
0.00366296445790371	0.00366296445790371	0.00366296445790371	0.00366296445790371	0.00366296445790371	0.00366296445790371
-0.114182213670522	-0.114182213670522	-0.114182213670522	-0.114182213670522	-0.114182213670522	-0.114182213670522
-0.100714710415634	-0.100714710415634	-0.100714710415634	-0.100714710415634	-0.100714710415634	-0.100714710415634
-0.0348357336680969	-0.0348357336680969	-0.0348357336680969	-0.0348357336680969	-0.0348357336680969	-0.0348357336680969
-0.179712385809237	-0.179712385809237	-0.179712385809237	-0.179712385809237	-0.179712385809237	-0.179712385809237
-0.0625770407771755	-0.0625770407771755	-0.0625770407771755	-0.0625770407771755	-0.0625770407771755	-0.0625770407771755
-0.252764914516484	-0.252764914516484	-0.252764914516484	-0.252764914516484	-0.252764914516484	-0.252764914516484
-0.176933020946131	-0.176933020946131	-0.176933020946131	-0.176933020946131	-0.176933020946131	-0.176933020946131
-0.197923086315701	-0.197923086315701	-0.197923086315701	-0.197923086315701	-0.197923086315701	-0.197923086315701
-0.23778858600023	-0.23778858600023	-0.23778858600023	-0.23778858600023	-0.23778858600023	-0.23778858600023
-0.197021324115694	-0.197021324115694	-0.197021324115694	-0.197021324115694	-0.197021324115694	-0.197021324115694
-0.174327474802896	-0.174327474802896	-0.174327474802896	-0.174327474802896	-0.174327474802896	-0.174327474802896
-0.174511664498415	-0.174511664498415	-0.174511664498415	-0.174511664498415	-0.174511664498415	-0.174511664498415
0.00675464964234353	0.00675464964234353	0.00675464964234353	0.00675464964234353	0.00675464964234353	0.00675464964234353
0.0673887567284069	0.0673887567284069	0.0673887567284069	0.0673887567284069	0.0673887567284069	0.0673887567284069
0.306036404721264	0.306036404721264	0.306036404721264	0.306036404721264	0.306036404721264	0.306036404721264
0.327256299691787	0.327256299691787	0.327256299691787	0.327256299691787	0.327256299691787	0.327256299691787
0.67335500867104	0.67335500867104	0.67335500867104	0.67335500867104	0.67335500867104	0.67335500867104
0.8931356849535	0.8931356849535	0.8931356849535	0.8931356849535	0.8931356849535	0.8931356849535
1.05766494677046	1.05766494677046	1.05766494677046	1.05766494677046	1.05766494677046	1.05766494677046
1.17120332149938	1.17120332149938	1.17120332149938	1.17120332149938	1.17120332149938	1.17120332149938
1.03825267886432	1.03825267886432	1.03825267886432	1.03825267886432	1.03825267886432	1.03825267886432
0.983023518640801	0.983023518640801	0.983023518640801	0.983023518640801	0.983023518640801	0.983023518640801
0.920908415980612	0.920908415980612	0.920908415980612	0.920908415980612	0.920908415980612	0.920908415980612
0.686466855936733	0.686466855936733	0.686466855936733	0.686466855936733	0.686466855936733	0.686466855936733
0.561362164615197	0.561362164615197	0.561362164615197	0.561362164615197	0.561362164615197	0.561362164615197
0.392650604066958	0.392650604066958	0.392650604066958	0.392650604066958	0.392650604066958	0.392650604066958
0.105954243050329	0.105954243050329	0.105954243050329	0.105954243050329	0.105954243050329	0.105954243050329
-0.017822380432015	-0.017822380432015	-0.017822380432015	-0.017822380432015	-0.017822380432015	-0.017822380432015
-0.263816402230787	-0.263816402230787	-0.263816402230787	-0.263816402230787	-0.263816402230787	-0.263816402230787
-0.257639517914032	-0.257639517914032	-0.257639517914032	-0.257639517914032	-0.257639517914032	-0.257639517914032
-0.431975598658999	-0.431975598658999	-0.431975598658999	-0.431975598658999	-0.431975598658999	-0.431975598658999
-0.472334904698075	-0.472334904698075	-0.472334904698075	-0.472334904698075	-0.472334904698075	-0.472334904698075
-0.454015095922758	-0.454015095922758	-0.454015095922758	-0.454015095922758	-0.454015095922758	-0.454015095922758
-0.42937590608725	-0.42937590608725	-0.42937590608725	-0.42937590608725	-0.42937590608725	-0.42937590608725
-0.254642426642401	-0.254642426642401	-0.254642426642401	-0.254642426642401	-0.254642426642401	-0.254642426642401
-0.306024309860681	-0.306024309860681	-0.306024309860681	-0.306024309860681	-0.306024309860681	-0.306024309860681
-0.156261006665493	-0.156261006665493	-0.156261006665493	-0.156261006665493	-0.156261006665493	-0.156261006665493
-0.0853316410619458	-0.0853316410619458	-0.0853316410619458	-0.0853316410619458	-0.0853316410619458	-0.0853316410619458
-0.185934880874852	-0.185934880874852	-0.185934880874852	-0.185934880874852	-0.185934880874852	-0.185934880874852
-0.0835337935962742	-0.0835337935962742	-0.0835337935962742	-0.0835337935962742	-0.0835337935962742	-0.0835337935962742
-0.0477266288716265	-0.0477266288716265	-0.0477266288716265	-0.0477266288716265	-0.0477266288716265	-0.0477266288716265
-0.135138848520939	-0.135138848520939	-0.135138848520939	-0.135138848520939	-0.135138848520939	-0.135138848520939
-0.0124986888938332	-0.0124986888938332	-0.0124986888938332	-0.0124986888938332	-0.0124986888938332	-0.0124986888938332
-0.149967326035755	-0.149967326035755	-0.149967326035755	-0.149967326035755	-0.149967326035755	-0.149967326035755
-0.185971628304569	-0.185971628304569	-0.185971628304569	-0.185971628304569	-0.185971628304569	-0.185971628304569
-0.099836465785654	-0.099836465785654	-0.099836465785654	-0.099836465785654	-0.099836465785654	-0.099836465785654
-0.0896322390665087	-0.0896322390665087	-0.0896322390665087	-0.0896322390665087	-0.0896322390665087	-0.0896322390665087
0.0129952698004417	0.0129952698004417	0.0129952698004417	0.0129952698004417	0.0129952698004417	0.0129952698004417
-0.0622071901832035	-0.0622071901832035	-0.0622071901832035	-0.0622071901832035	-0.0622071901832035	-0.0622071901832035
-0.131938687930269	-0.131938687930269	-0.131938687930269	-0.131938687930269	-0.131938687930269	-0.131938687930269
-0.124868714605383	-0.124868714605383	-0.124868714605383	-0.124868714605383	-0.124868714605383	-0.124868714605383
0.0223260172057612	0.0223260172057612	0.0223260172057612	0.0223260172057612	0.0223260172057612	0.0223260172057612
-0.0660844695443012	-0.0660844695443012	-0.0660844695443012	-0.0660844695443012	-0.0660844695443012	-0.0660844695443012
-0.0913078595445138	-0.0913078595445138	-0.0913078595445138	-0.0913078595445138	-0.0913078595445138	-0.0913078595445138
0.0168843503886125	0.0168843503886125	0.0168843503886125	0.0168843503886125	0.0168843503886125	0.0168843503886125
-0.00187808950602469	-0.00187808950602469	-0.00187808950602469	-0.00187808950602469	-0.00187808950602469	-0.00187808950602469
-0.102347626085064	-0.102347626085064	-0.102347626085064	-0.102347626085064	-0.102347626085064	-0.102347626085064
0.0466551422573972	0.0466551422573972	0.0466551422573972	0.0466551422573972	0.0466551422573972	0.0466551422573972
0.0639593124215577	0.0639593124215577	0.0639593124215577	0.0639593124215577	0.0639593124215577	0.0639593124215577
-0.048091106737689	-0.048091106737689	-0.048091106737689	-0.048091106737689	-0.048091106737689	-0.048091106737689
-0.0688798547834558	-0.0688798547834558	-0.0688798547834558	-0.0688798547834558	-0.0688798547834558	-0.0688798547834558
-0.0496459378086747	-0.0496459378086747	-0.0496459378086747	-0.0496459378086747	-0.0496459378086747	-0.0496459378086747
-0.0418820326695429	-0.0418820326695429	-0.0418820326695429	-0.0418820326695429	-0.0418820326695429	-0.0418820326695429
0.100334672737277	0.100334672737277	0.100334672737277	0.100334672737277	0.100334672737277	0.100334672737277
-0.0537360954935988	-0.0537360954935988	-0.0537360954935988	-0.0537360954935988	-0.0537360954935988	-0.0537360954935988
0.078318596388049	0.078318596388049	0.078318596388049	0.078318596388049	0.078318596388049	0.078318596388049
0.0570495991421815	0.0570495991421815	0.0570495991421815	0.0570495991421815	0.0570495991421815	0.0570495991421815
0.138126904026252	0.138126904026252	0.138126904026252	0.138126904026252	0.138126904026252	0.138126904026252
0.0951954394271056	0.0951954394271056	0.0951954394271056	0.0951954394271056	0.0951954394271056	0.0951954394271056
0.207409594549338	0.207409594549338	0.207409594549338	0.207409594549338	0.207409594549338	0.207409594549338
0.0362456129491942	0.0362456129491942	0.0362456129491942	0.0362456129491942	0.0362456129491942	0.0362456129491942
0.234182326375836	0.234182326375836	0.234182326375836	0.234182326375836	0.234182326375836	0.234182326375836
0.0723092281602737	0.0723092281602737	0.0723092281602737	0.0723092281602737	0.0723092281602737	0.0723092281602737
0.223089878914802	0.223089878914802	0.223089878914802	0.223089878914802	0.223089878914802	0.223089878914802
0.225232129284142	0.225232129284142	0.225232129284142	0.225232129284142	0.225232129284142	0.225232129284142
0.215947491326626	0.215947491326626	0.215947491326626	0.215947491326626	0.215947491326626	0.215947491326626
0.150807627131839	0.150807627131839	0.150807627131839	0.150807627131839	0.150807627131839	0.150807627131839
0.185929735337451	0.185929735337451	0.185929735337451	0.185929735337451	0.185929735337451	0.185929735337451
0.322591797212305	0.322591797212305	0.322591797212305	0.322591797212305	0.322591797212305	0.322591797212305
0.212783241937419	0.212783241937419	0.212783241937419	0.212783241937419	0.212783241937419	0.212783241937419
0.396572709082929	0.396572709082929	0.396572709082929	0.396572709082929	0.396572709082929	0.396572709082929
0.226176650432002	0.226176650432002	0.226176650432002	0.226176650432002	0.226176650432002	0.226176650432002
0.398459304397124	0.398459304397124	0.398459304397124	0.398459304397124	0.398459304397124	0.398459304397124
0.324691981462193	0.324691981462193	0.324691981462193	0.324691981462193	0.324691981462193	0.324691981462193
0.344973732848029	0.344973732848029	0.344973732848029	0.344973732848029	0.344973732848029	0.344973732848029
0.337897114698758	0.337897114698758	0.337897114698758	0.337897114698758	0.337897114698758	0.337897114698758
0.446295055971075	0.446295055971075	0.446295055971075	0.446295055971075	0.446295055971075	0.446295055971075
0.382817002807623	0.382817002807623	0.382817002807623	0.382817002807623	0.382817002807623	0.382817002807623
0.328067062647026	0.328067062647026	0.328067062647026	0.328067062647026	0.328067062647026	0.328067062647026
0.350228243067989	0.350228243067989	0.350228243067989	0.350228243067989	0.350228243067989	0.350228243067989
0.408345468176107	0.408345468176107	0.408345468176107	0.408345468176107	0.408345468176107	0.408345468176107
0.36643788830785	0.36643788830785	0.36643788830785	0.36643788830785	0.36643788830785	0.36643788830785
0.398974585868609	0.398974585868609	0.398974585868609	0.398974585868609	0.398974585868609	0.398974585868609
0.369137875844343	0.369137875844343	0.369137875844343	0.369137875844343	0.369137875844343	0.369137875844343
0.266942517797019	0.266942517797019	0.266942517797019	0.266942517797019	0.266942517797019	0.266942517797019
0.343678109699402	0.343678109699402	0.343678109699402	0.343678109699402	0.343678109699402	0.343678109699402
0.289851646603342	0.289851646603342	0.289851646603342	0.289851646603342	0.289851646603342	0.289851646603342
0.316484508493318	0.316484508493318	0.316484508493318	0.316484508493318	0.316484508493318	0.316484508493318
0.211408578487126	0.211408578487126	0.211408578487126	0.211408578487126	0.211408578487126	0.211408578487126
0.249146022507444	0.249146022507444	0.249146022507444	0.249146022507444	0.249146022507444	0.249146022507444
0.295390154167708	0.295390154167708	0.295390154167708	0.295390154167708	0.295390154167708	0.295390154167708
0.25423196323045	0.25423196323045	0.25423196323045	0.25423196323045	0.25423196323045	0.25423196323045
0.226698151414237	0.226698151414237	0.226698151414237	0.226698151414237	0.226698151414237	0.226698151414237
0.0968076931467852	0.0968076931467852	0.0968076931467852	0.0968076931467852	0.0968076931467852	0.0968076931467852
0.104105729145031	0.104105729145031	0.104105729145031	0.104105729145031	0.104105729145031	0.104105729145031
0.19844912696998	0.19844912696998	0.19844912696998	0.19844912696998	0.19844912696998	0.19844912696998
0.089113786350801	0.089113786350801	0.089113786350801	0.089113786350801	0.089113786350801	0.089113786350801
0.16336445646083	0.16336445646083	0.16336445646083	0.16336445646083	0.16336445646083	0.16336445646083
0.111907623413967	0.111907623413967	0.111907623413967	0.111907623413967	0.111907623413967	0.111907623413967
0.0488230246826631	0.0488230246826631	0.0488230246826631	0.0488230246826631	0.0488230246826631	0.0488230246826631
0.0445994599145704	0.0445994599145704	0.0445994599145704	0.0445994599145704	0.0445994599145704	0.0445994599145704
0.109698952094498	0.109698952094498	0.109698952094498	0.109698952094498	0.109698952094498	0.109698952094498
0.00138879876523591	0.00138879876523591	0.00138879876523591	0.00138879876523591	0.00138879876523591	0.00138879876523591
0.00546953003535779	0.00546953003535779	0.00546953003535779	0.00546953003535779	0.00546953003535779	0.00546953003535779
0.0414525676568292	0.0414525676568292	0.0414525676568292	0.0414525676568292	0.0414525676568292	0.0414525676568292
0.0795219728315371	0.0795219728315371	0.0795219728315371	0.0795219728315371	0.0795219728315371	0.0795219728315371
0.0313106122132363	0.0313106122132363	0.0313106122132363	0.0313106122132363	0.0313106122132363	0.0313106122132363
-0.048993003514538	-0.048993003514538	-0.048993003514538	-0.048993003514538	-0.048993003514538	-0.048993003514538
0.0201547765318846	0.0201547765318846	0.0201547765318846	0.0201547765318846	0.0201547765318846	0.0201547765318846
-0.0875591960565747	-0.0875591960565747	-0.0875591960565747	-0.0875591960565747	-0.0875591960565747	-0.0875591960565747
0.0296728979823658	0.0296728979823658	0.0296728979823658	0.0296728979823658	0.0296728979823658	0.0296728979823658
-0.16198454731678	-0.16198454731678	-0.16198454731678	-0.16198454731678	-0.16198454731678	-0.16198454731678
-0.10417731757304	-0.10417731757304	-0.10417731757304	-0.10417731757304	-0.10417731757304	-0.10417731757304
-0.119824190618066	-0.119824190618066	-0.119824190618066	-0.119824190618066	-0.119824190618066	-0.119824190618066
-0.123248865590568	-0.123248865590568	-0.123248865590568	-0.123248865590568	-0.123248865590568	-0.123248865590568
-0.0914476113762542	-0.0914476113762542	-0.0914476113762542	-0.0914476113762542	-0.0914476113762542	-0.0914476113762542
-0.0516532855521366	-0.0516532855521366	-0.0516532855521366	-0.0516532855521366	-0.0516532855521366	-0.0516532855521366
-0.210046353327952	-0.210046353327952	-0.210046353327952	-0.210046353327952	-0.210046353327952	-0.210046353327952
-0.150991633413202	-0.150991633413202	-0.150991633413202	-0.150991633413202	-0.150991633413202	-0.150991633413202
-0.0295982384475393	-0.0295982384475393	-0.0295982384475393	-0.0295982384475393	-0.0295982384475393	-0.0295982384475393
-0.126090450012263	-0.126090450012263	-0.126090450012263	-0.126090450012263	-0.126090450012263	-0.126090450012263
-0.224185145064003	-0.224185145064003	-0.224185145064003	-0.224185145064003	-0.224185145064003	-0.224185145064003
-0.15049512848946	-0.15049512848946	-0.15049512848946	-0.15049512848946	-0.15049512848946	-0.15049512848946
-0.15901606438807	-0.15901606438807	-0.15901606438807	-0.15901606438807	-0.15901606438807	-0.15901606438807
-0.132276503291221	-0.132276503291221	-0.132276503291221	-0.132276503291221	-0.132276503291221	-0.132276503291221
-0.087680955812318	-0.087680955812318	-0.087680955812318	-0.087680955812318	-0.087680955812318	-0.087680955812318
-0.149775677641245	-0.149775677641245	-0.149775677641245	-0.149775677641245	-0.149775677641245	-0.149775677641245
-0.0473514586710576	-0.0473514586710576	-0.0473514586710576	-0.0473514586710576	-0.0473514586710576	-0.0473514586710576
-0.102878631540296	-0.102878631540296	-0.102878631540296	-0.102878631540296	-0.102878631540296	-0.102878631540296
-0.215186392143514	-0.215186392143514	-0.215186392143514	-0.215186392143514	-0.215186392143514	-0.215186392143514
-0.0581100870171997	-0.0581100870171997	-0.0581100870171997	-0.0581100870171997	-0.0581100870171997	-0.0581100870171997
-0.0747774279844166	-0.0747774279844166	-0.0747774279844166	-0.0747774279844166	-0.0747774279844166	-0.0747774279844166
-0.0974214007459706	-0.0974214007459706	-0.0974214007459706	-0.0974214007459706	-0.0974214007459706	-0.0974214007459706
-0.0595486546355893	-0.0595486546355893	-0.0595486546355893	-0.0595486546355893	-0.0595486546355893	-0.0595486546355893
-0.0905980358127338	-0.0905980358127338	-0.0905980358127338	-0.0905980358127338	-0.0905980358127338	-0.0905980358127338
-0.122930422184558	-0.122930422184558	-0.122930422184558	-0.122930422184558	-0.122930422184558	-0.122930422184558
-0.219395029714598	-0.219395029714598	-0.219395029714598	-0.219395029714598	-0.219395029714598	-0.219395029714598
-0.10243673070932	-0.10243673070932	-0.10243673070932	-0.10243673070932	-0.10243673070932	-0.10243673070932
-0.229006908836792	-0.229006908836792	-0.229006908836792	-0.229006908836792	-0.229006908836792	-0.229006908836792
-0.219154080884066	-0.219154080884066	-0.219154080884066	-0.219154080884066	-0.219154080884066	-0.219154080884066
-0.0491352395504398	-0.0491352395504398	-0.0491352395504398	-0.0491352395504398	-0.0491352395504398	-0.0491352395504398
-0.0674707091975099	-0.0674707091975099	-0.0674707091975099	-0.0674707091975099	-0.0674707091975099	-0.0674707091975099
-0.155691833476619	-0.155691833476619	-0.155691833476619	-0.155691833476619	-0.155691833476619	-0.155691833476619
-0.17701370067005	-0.17701370067005	-0.17701370067005	-0.17701370067005	-0.17701370067005	-0.17701370067005
-0.120385767390856	-0.120385767390856	-0.120385767390856	-0.120385767390856	-0.120385767390856	-0.120385767390856
-0.182372312404705	-0.182372312404705	-0.182372312404705	-0.182372312404705	-0.182372312404705	-0.182372312404705
-0.0347701462407338	-0.0347701462407338	-0.0347701462407338	-0.0347701462407338	-0.0347701462407338	-0.0347701462407338
-0.119455353440414	-0.119455353440414	-0.119455353440414	-0.119455353440414	-0.119455353440414	-0.119455353440414
-0.131376287643001	-0.131376287643001	-0.131376287643001	-0.131376287643001	-0.131376287643001	-0.131376287643001
-0.222560530472767	-0.222560530472767	-0.222560530472767	-0.222560530472767	-0.222560530472767	-0.222560530472767
-0.0930130866643105	-0.0930130866643105	-0.0930130866643105	-0.0930130866643105	-0.0930130866643105	-0.0930130866643105
-0.0293968931900296	-0.0293968931900296	-0.0293968931900296	-0.0293968931900296	-0.0293968931900296	-0.0293968931900296
-0.060528602577746	-0.060528602577746	-0.060528602577746	-0.060528602577746	-0.060528602577746	-0.060528602577746
-0.0678939738455987	-0.0678939738455987	-0.0678939738455987	-0.0678939738455987	-0.0678939738455987	-0.0678939738455987
-0.199033692876584	-0.199033692876584	-0.199033692876584	-0.199033692876584	-0.199033692876584	-0.199033692876584
-0.0248765191226808	-0.0248765191226808	-0.0248765191226808	-0.0248765191226808	-0.0248765191226808	-0.0248765191226808
-0.140858587475576	-0.140858587475576	-0.140858587475576	-0.140858587475576	-0.140858587475576	-0.140858587475576
-0.0312446160766851	-0.0312446160766851	-0.0312446160766851	-0.0312446160766851	-0.0312446160766851	-0.0312446160766851
-0.184476473606996	-0.184476473606996	-0.184476473606996	-0.184476473606996	-0.184476473606996	-0.184476473606996
-0.0726095365637783	-0.0726095365637783	-0.0726095365637783	-0.0726095365637783	-0.0726095365637783	-0.0726095365637783
-0.0335421563037934	-0.0335421563037934	-0.0335421563037934	-0.0335421563037934	-0.0335421563037934	-0.0335421563037934
-0.156676681215834	-0.156676681215834	-0.156676681215834	-0.156676681215834	-0.156676681215834	-0.156676681215834
-0.220398542744567	-0.220398542744567	-0.220398542744567	-0.220398542744567	-0.220398542744567	-0.220398542744567
-0.0720990108172316	-0.0720990108172316	-0.0720990108172316	-0.0720990108172316	-0.0720990108172316	-0.0720990108172316
-0.132653420410089	-0.132653420410089	-0.132653420410089	-0.132653420410089	-0.132653420410089	-0.132653420410089
-0.0719744221923382	-0.0719744221923382	-0.0719744221923382	-0.0719744221923382	-0.0719744221923382	-0.0719744221923382
-0.104931535361559	-0.104931535361559	-0.104931535361559	-0.104931535361559	-0.104931535361559	-0.104931535361559
-0.214039729683854	-0.214039729683854	-0.214039729683854	-0.214039729683854	-0.214039729683854	-0.214039729683854
-0.207768840854201	-0.207768840854201	-0.207768840854201	-0.207768840854201	-0.207768840854201	-0.207768840854201
-0.191879349963973	-0.191879349963973	-0.191879349963973	-0.191879349963973	-0.191879349963973	-0.191879349963973
-0.106476885694197	-0.106476885694197	-0.106476885694197	-0.106476885694197	-0.106476885694197	-0.106476885694197
-0.153761603208933	-0.153761603208933	-0.153761603208933	-0.153761603208933	-0.153761603208933	-0.153761603208933
-0.0904720849991876	-0.0904720849991876	-0.0904720849991876	-0.0904720849991876	-0.0904720849991876	-0.0904720849991876
-0.0495463563630202	-0.0495463563630202	-0.0495463563630202	-0.0495463563630202	-0.0495463563630202	-0.0495463563630202
-0.0635302674171114	-0.0635302674171114	-0.0635302674171114	-0.0635302674171114	-0.0635302674171114	-0.0635302674171114
-0.16214626878242	-0.16214626878242	-0.16214626878242	-0.16214626878242	-0.16214626878242	-0.16214626878242
-0.040070594049895	-0.040070594049895	-0.040070594049895	-0.040070594049895	-0.040070594049895	-0.040070594049895
-0.063306662449082	-0.063306662449082	-0.063306662449082	-0.063306662449082	-0.063306662449082	-0.063306662449082
-0.0326891077387022	-0.0326891077387022	-0.0326891077387022	-0.0326891077387022	-0.0326891077387022	-0.0326891077387022
-0.045035806106499	-0.045035806106499	-0.045035806106499	-0.045035806106499	-0.045035806106499	-0.045035806106499
-0.159253054935302	-0.159253054935302	-0.159253054935302	-0.159253054935302	-0.159253054935302	-0.159253054935302
-0.0909993134167176	-0.0909993134167176	-0.0909993134167176	-0.0909993134167176	-0.0909993134167176	-0.0909993134167176
-0.130804772834103	-0.130804772834103	-0.130804772834103	-0.130804772834103	-0.130804772834103	-0.130804772834103
-0.0913385314804114	-0.0913385314804114	-0.0913385314804114	-0.0913385314804114	-0.0913385314804114	-0.0913385314804114
-0.123184023913781	-0.123184023913781	-0.123184023913781	-0.123184023913781	-0.123184023913781	-0.123184023913781
-0.0880869581490601	-0.0880869581490601	-0.0880869581490601	-0.0880869581490601	-0.0880869581490601	-0.0880869581490601
-0.0952546189374509	-0.0952546189374509	-0.0952546189374509	-0.0952546189374509	-0.0952546189374509	-0.0952546189374509
-0.183480604168189	-0.183480604168189	-0.183480604168189	-0.183480604168189	-0.183480604168189	-0.183480604168189
-0.131137741749942	-0.131137741749942	-0.131137741749942	-0.131137741749942	-0.131137741749942	-0.131137741749942
-0.158664711841199	-0.158664711841199	-0.158664711841199	-0.158664711841199	-0.158664711841199	-0.158664711841199
-0.122378592072453	-0.122378592072453	-0.122378592072453	-0.122378592072453	-0.122378592072453	-0.122378592072453
-0.00403039265420931	-0.00403039265420931	-0.00403039265420931	-0.00403039265420931	-0.00403039265420931	-0.00403039265420931
0.0192545941501021	0.0192545941501021	0.0192545941501021	0.0192545941501021	0.0192545941501021	0.0192545941501021
-0.0447880122865883	-0.0447880122865883	-0.0447880122865883	-0.0447880122865883	-0.0447880122865883	-0.0447880122865883
-0.0868224407054392	-0.0868224407054392	-0.0868224407054392	-0.0868224407054392	-0.0868224407054392	-0.0868224407054392
-0.0235635841049737	-0.0235635841049737	-0.0235635841049737	-0.0235635841049737	-0.0235635841049737	-0.0235635841049737
0.0751294007937762	0.0751294007937762	0.0751294007937762	0.0751294007937762	0.0751294007937762	0.0751294007937762
-0.0311757354001272	-0.0311757354001272	-0.0311757354001272	-0.0311757354001272	-0.0311757354001272	-0.0311757354001272
0.0931430454104673	0.0931430454104673	0.0931430454104673	0.0931430454104673	0.0931430454104673	0.0931430454104673
0.0758237686056271	0.0758237686056271	0.0758237686056271	0.0758237686056271	0.0758237686056271	0.0758237686056271
0.140315222300644	0.140315222300644	0.140315222300644	0.140315222300644	0.140315222300644	0.140315222300644
0.153105845054014	0.153105845054014	0.153105845054014	0.153105845054014	0.153105845054014	0.153105845054014
0.181871768871992	0.181871768871992	0.181871768871992	0.181871768871992	0.181871768871992	0.181871768871992
0.038682756515207	0.038682756515207	0.038682756515207	0.038682756515207	0.038682756515207	0.038682756515207
0.191025733769756	0.191025733769756	0.191025733769756	0.191025733769756	0.191025733769756	0.191025733769756
0.232058446337771	0.232058446337771	0.232058446337771	0.232058446337771	0.232058446337771	0.232058446337771
0.203759179717802	0.203759179717802	0.203759179717802	0.203759179717802	0.203759179717802	0.203759179717802
0.252412182816734	0.252412182816734	0.252412182816734	0.252412182816734	0.252412182816734	0.252412182816734
0.0780374856844619	0.0780374856844619	0.0780374856844619	0.0780374856844619	0.0780374856844619	0.0780374856844619
0.240711330948667	0.240711330948667	0.240711330948667	0.240711330948667	0.240711330948667	0.240711330948667
0.229914088962351	0.229914088962351	0.229914088962351	0.229914088962351	0.229914088962351	0.229914088962351
0.111781102920806	0.111781102920806	0.111781102920806	0.111781102920806	0.111781102920806	0.111781102920806
0.206379825222364	0.206379825222364	0.206379825222364	0.206379825222364	0.206379825222364	0.206379825222364
0.281866832501326	0.281866832501326	0.281866832501326	0.281866832501326	0.281866832501326	0.281866832501326
0.240851675616908	0.240851675616908	0.240851675616908	0.240851675616908	0.240851675616908	0.240851675616908
0.102041916476329	0.102041916476329	0.102041916476329	0.102041916476329	0.102041916476329	0.102041916476329
0.230285579756159	0.230285579756159	0.230285579756159	0.230285579756159	0.230285579756159	0.230285579756159
0.223065293518945	0.223065293518945	0.223065293518945	0.223065293518945	0.223065293518945	0.223065293518945
0.122061906692102	0.122061906692102	0.122061906692102	0.122061906692102	0.122061906692102	0.122061906692102
0.0177940573367758	0.0177940573367758	0.0177940573367758	0.0177940573367758	0.0177940573367758	0.0177940573367758
0.191503884015551	0.191503884015551	0.191503884015551	0.191503884015551	0.191503884015551	0.191503884015551
-0.0245986779649413	-0.0245986779649413	-0.0245986779649413	-0.0245986779649413	-0.0245986779649413	-0.0245986779649413
0.135986747618406	0.135986747618406	0.135986747618406	0.135986747618406	0.135986747618406	0.135986747618406
-0.0153424748848735	-0.0153424748848735	-0.0153424748848735	-0.0153424748848735	-0.0153424748848735	-0.0153424748848735
0.0592079214606432	0.0592079214606432	0.0592079214606432	0.0592079214606432	0.0592079214606432	0.0592079214606432
0.0278016842208618	0.0278016842208618	0.0278016842208618	0.0278016842208618	0.0278016842208618	0.0278016842208618
-0.0366544649427432	-0.0366544649427432	-0.0366544649427432	-0.0366544649427432	-0.0366544649427432	-0.0366544649427432
-0.120888703578855	-0.120888703578855	-0.120888703578855	-0.120888703578855	-0.120888703578855	-0.120888703578855
0.0598670844877401	0.0598670844877401	0.0598670844877401	0.0598670844877401	0.0598670844877401	0.0598670844877401
-0.133460426430749	-0.133460426430749	-0.133460426430749	-0.133460426430749	-0.133460426430749	-0.133460426430749
-0.00539612979957746	-0.00539612979957746	-0.00539612979957746	-0.00539612979957746	-0.00539612979957746	-0.00539612979957746
-0.00938933366424888	-0.00938933366424888	-0.00938933366424888	-0.00938933366424888	-0.00938933366424888	-0.00938933366424888
-0.115525749480988	-0.115525749480988	-0.115525749480988	-0.115525749480988	-0.115525749480988	-0.115525749480988
-0.0442229067561195	-0.0442229067561195	-0.0442229067561195	-0.0442229067561195	-0.0442229067561195	-0.0442229067561195
-0.0431929203490512	-0.0431929203490512	-0.0431929203490512	-0.0431929203490512	-0.0431929203490512	-0.0431929203490512
-0.0252198026814737	-0.0252198026814737	-0.0252198026814737	-0.0252198026814737	-0.0252198026814737	-0.0252198026814737
-0.185681950547319	-0.185681950547319	-0.185681950547319	-0.185681950547319	-0.185681950547319	-0.185681950547319
-0.0798018535227739	-0.0798018535227739	-0.0798018535227739	-0.0798018535227739	-0.0798018535227739	-0.0798018535227739
-0.0795768169885883	-0.0795768169885883	-0.0795768169885883	-0.0795768169885883	-0.0795768169885883	-0.0795768169885883
-0.158069099125894	-0.158069099125894	-0.158069099125894	-0.158069099125894	-0.158069099125894	-0.158069099125894
-0.111105162058983	-0.111105162058983	-0.111105162058983	-0.111105162058983	-0.111105162058983	-0.111105162058983
-0.113558928764377	-0.113558928764377	-0.113558928764377	-0.113558928764377	-0.113558928764377	-0.113558928764377
-0.223413406774215	-0.223413406774215	-0.223413406774215	-0.223413406774215	-0.223413406774215	-0.223413406774215
-0.181596608537545	-0.181596608537545	-0.181596608537545	-0.181596608537545	-0.181596608537545	-0.181596608537545
-0.219810655285722	-0.219810655285722	-0.219810655285722	-0.219810655285722	-0.219810655285722	-0.219810655285722
-0.160414059487836	-0.160414059487836	-0.160414059487836	-0.160414059487836	-0.160414059487836	-0.160414059487836
-0.183809326888145	-0.183809326888145	-0.183809326888145	-0.183809326888145	-0.183809326888145	-0.183809326888145
-0.199799994145336	-0.199799994145336	-0.199799994145336	-0.199799994145336	-0.199799994145336	-0.199799994145336
-0.277329906941488	-0.277329906941488	-0.277329906941488	-0.277329906941488	-0.277329906941488	-0.277329906941488
-0.222008417723326	-0.222008417723326	-0.222008417723326	-0.222008417723326	-0.222008417723326	-0.222008417723326
-0.146272623074762	-0.146272623074762	-0.146272623074762	-0.146272623074762	-0.146272623074762	-0.146272623074762
-0.28384333838404	-0.28384333838404	-0.28384333838404	-0.28384333838404	-0.28384333838404	-0.28384333838404
-0.0971280580475246	-0.0971280580475246	-0.0971280580475246	-0.0971280580475246	-0.0971280580475246	-0.0971280580475246
0.0987973783450046	0.0987973783450046	0.0987973783450046	0.0987973783450046	0.0987973783450046	0.0987973783450046
0.170487309403416	0.170487309403416	0.170487309403416	0.170487309403416	0.170487309403416	0.170487309403416
0.442494277723235	0.442494277723235	0.442494277723235	0.442494277723235	0.442494277723235	0.442494277723235
0.514754089739728	0.514754089739728	0.514754089739728	0.514754089739728	0.514754089739728	0.514754089739728
0.778146218872947	0.778146218872947	0.778146218872947	0.778146218872947	0.778146218872947	0.778146218872947
0.972041647385467	0.972041647385467	0.972041647385467	0.972041647385467	0.972041647385467	0.972041647385467
1.02730347858956	1.02730347858956	1.02730347858956	1.02730347858956	1.02730347858956	1.02730347858956
1.04141047461409	1.04141047461409	1.04141047461409	1.04141047461409	1.04141047461409	1.04141047461409
0.996508537734839	0.996508537734839	0.996508537734839	0.996508537734839	0.996508537734839	0.996508537734839
0.84835886753394	0.84835886753394	0.84835886753394	0.84835886753394	0.84835886753394	0.84835886753394
0.815458150088885	0.815458150088885	0.815458150088885	0.815458150088885	0.815458150088885	0.815458150088885
0.491199421726129	0.491199421726129	0.491199421726129	0.491199421726129	0.491199421726129	0.491199421726129
0.371871662410271	0.371871662410271	0.371871662410271	0.371871662410271	0.371871662410271	0.371871662410271
0.0421462445576617	0.0421462445576617	0.0421462445576617	0.0421462445576617	0.0421462445576617	0.0421462445576617
-0.106125663134041	-0.106125663134041	-0.106125663134041	-0.106125663134041	-0.106125663134041	-0.106125663134041
-0.146252044888025	-0.146252044888025	-0.146252044888025	-0.146252044888025	-0.146252044888025	-0.146252044888025
-0.334086578597263	-0.334086578597263	-0.334086578597263	-0.334086578597263	-0.334086578597263	-0.334086578597263
-0.387244723778748	-0.387244723778748	-0.387244723778748	-0.387244723778748	-0.387244723778748	-0.387244723778748
-0.44658939925246	-0.44658939925246	-0.44658939925246	-0.44658939925246	-0.44658939925246	-0.44658939925246
-0.363743533309018	-0.363743533309018	-0.363743533309018	-0.363743533309018	-0.363743533309018	-0.363743533309018
-0.273980285899608	-0.273980285899608	-0.273980285899608	-0.273980285899608	-0.273980285899608	-0.273980285899608
-0.231008541359533	-0.231008541359533	-0.231008541359533	-0.231008541359533	-0.231008541359533	-0.231008541359533
-0.1670572241761	-0.1670572241761	-0.1670572241761	-0.1670572241761	-0.1670572241761	-0.1670572241761
-0.261315069815353	-0.261315069815353	-0.261315069815353	-0.261315069815353	-0.261315069815353	-0.261315069815353
-0.272930113459808	-0.272930113459808	-0.272930113459808	-0.272930113459808	-0.272930113459808	-0.272930113459808
-0.0716476142451608	-0.0716476142451608	-0.0716476142451608	-0.0716476142451608	-0.0716476142451608	-0.0716476142451608
-0.0816798650157269	-0.0816798650157269	-0.0816798650157269	-0.0816798650157269	-0.0816798650157269	-0.0816798650157269
-0.0936259141797915	-0.0936259141797915	-0.0936259141797915	-0.0936259141797915	-0.0936259141797915	-0.0936259141797915
-0.164915787590312	-0.164915787590312	-0.164915787590312	-0.164915787590312	-0.164915787590312	-0.164915787590312
-0.0612003596581175	-0.0612003596581175	-0.0612003596581175	-0.0612003596581175	-0.0612003596581175	-0.0612003596581175
-0.167493267915438	-0.167493267915438	-0.167493267915438	-0.167493267915438	-0.167493267915438	-0.167493267915438
-0.106834866522675	-0.106834866522675	-0.106834866522675	-0.106834866522675	-0.106834866522675	-0.106834866522675
-0.149311889499589	-0.149311889499589	-0.149311889499589	-0.149311889499589	-0.149311889499589	-0.149311889499589
-0.0652394662229596	-0.0652394662229596	-0.0652394662229596	-0.0652394662229596	-0.0652394662229596	-0.0652394662229596
-0.161625105044065	-0.161625105044065	-0.161625105044065	-0.161625105044065	-0.161625105044065	-0.161625105044065
0.0159983926786765	0.0159983926786765	0.0159983926786765	0.0159983926786765	0.0159983926786765	0.0159983926786765
-0.171774022684047	-0.171774022684047	-0.171774022684047	-0.171774022684047	-0.171774022684047	-0.171774022684047
-0.120590695575165	-0.120590695575165	-0.120590695575165	-0.120590695575165	-0.120590695575165	-0.120590695575165
-0.0153984866032706	-0.0153984866032706	-0.0153984866032706	-0.0153984866032706	-0.0153984866032706	-0.0153984866032706
0.00874088892528736	0.00874088892528736	0.00874088892528736	0.00874088892528736	0.00874088892528736	0.00874088892528736
0.0280915576258724	0.0280915576258724	0.0280915576258724	0.0280915576258724	0.0280915576258724	0.0280915576258724
-0.13351745456034	-0.13351745456034	-0.13351745456034	-0.13351745456034	-0.13351745456034	-0.13351745456034
-0.0793461598119465	-0.0793461598119465	-0.0793461598119465	-0.0793461598119465	-0.0793461598119465	-0.0793461598119465
-0.0402418879558987	-0.0402418879558987	-0.0402418879558987	-0.0402418879558987	-0.0402418879558987	-0.0402418879558987
-0.0378031246723815	-0.0378031246723815	-0.0378031246723815	-0.0378031246723815	-0.0378031246723815	-0.0378031246723815
-0.00309078446673762	-0.00309078446673762	-0.00309078446673762	-0.00309078446673762	-0.00309078446673762	-0.00309078446673762
0.0246307141035162	0.0246307141035162	0.0246307141035162	0.0246307141035162	0.0246307141035162	0.0246307141035162
-0.0769788093040411	-0.0769788093040411	-0.0769788093040411	-0.0769788093040411	-0.0769788093040411	-0.0769788093040411
0.0355519407769131	0.0355519407769131	0.0355519407769131	0.0355519407769131	0.0355519407769131	0.0355519407769131
-0.00328113096859217	-0.00328113096859217	-0.00328113096859217	-0.00328113096859217	-0.00328113096859217	-0.00328113096859217
-0.0232740430716072	-0.0232740430716072	-0.0232740430716072	-0.0232740430716072	-0.0232740430716072	-0.0232740430716072
-0.0334391647007821	-0.0334391647007821	-0.0334391647007821	-0.0334391647007821	-0.0334391647007821	-0.0334391647007821
0.0731888837265435	0.0731888837265435	0.0731888837265435	0.0731888837265435	0.0731888837265435	0.0731888837265435
0.0246100263427825	0.0246100263427825	0.0246100263427825	0.0246100263427825	0.0246100263427825	0.0246100263427825
0.0382823095112372	0.0382823095112372	0.0382823095112372	0.0382823095112372	0.0382823095112372	0.0382823095112372
0.0630339722904695	0.0630339722904695	0.0630339722904695	0.0630339722904695	0.0630339722904695	0.0630339722904695
0.218129473575327	0.218129473575327	0.218129473575327	0.218129473575327	0.218129473575327	0.218129473575327
0.0979169921979743	0.0979169921979743	0.0979169921979743	0.0979169921979743	0.0979169921979743	0.0979169921979743
0.238712818982988	0.238712818982988	0.238712818982988	0.238712818982988	0.238712818982988	0.238712818982988
0.212172909861571	0.212172909861571	0.212172909861571	0.212172909861571	0.212172909861571	0.212172909861571
0.257397446940945	0.257397446940945	0.257397446940945	0.257397446940945	0.257397446940945	0.257397446940945
0.189104022661939	0.189104022661939	0.189104022661939	0.189104022661939	0.189104022661939	0.189104022661939
0.301202804843379	0.301202804843379	0.301202804843379	0.301202804843379	0.301202804843379	0.301202804843379
0.14989670873674	0.14989670873674	0.14989670873674	0.14989670873674	0.14989670873674	0.14989670873674
0.348125360356445	0.348125360356445	0.348125360356445	0.348125360356445	0.348125360356445	0.348125360356445
0.315267412275852	0.315267412275852	0.315267412275852	0.315267412275852	0.315267412275852	0.315267412275852
0.378526930696014	0.378526930696014	0.378526930696014	0.378526930696014	0.378526930696014	0.378526930696014
0.397231369171236	0.397231369171236	0.397231369171236	0.397231369171236	0.397231369171236	0.397231369171236
0.386485338681184	0.386485338681184	0.386485338681184	0.386485338681184	0.386485338681184	0.386485338681184
