0.963090903068575	0.963090903068575	0.963090903068575	0.963090903068575	0.963090903068575	0.963090903068575
0.849458933847543	0.849458933847543	0.849458933847543	0.849458933847543	0.849458933847543	0.849458933847543
0.778282991500474	0.778282991500474	0.778282991500474	0.778282991500474	0.778282991500474	0.778282991500474
0.327202111041369	0.327202111041369	0.327202111041369	0.327202111041369	0.327202111041369	0.327202111041369
0.014507653459113	0.014507653459113	0.014507653459113	0.014507653459113	0.014507653459113	0.014507653459113
-0.133329712533988	-0.133329712533988	-0.133329712533988	-0.133329712533988	-0.133329712533988	-0.133329712533988
-0.310772190021012	-0.310772190021012	-0.310772190021012	-0.310772190021012	-0.310772190021012	-0.310772190021012
-0.350102376790787	-0.350102376790787	-0.350102376790787	-0.350102376790787	-0.350102376790787	-0.350102376790787
-0.363350103707699	-0.363350103707699	-0.363350103707699	-0.363350103707699	-0.363350103707699	-0.363350103707699
-0.334394776623673	-0.334394776623673	-0.334394776623673	-0.334394776623673	-0.334394776623673	-0.334394776623673
-0.307333441019757	-0.307333441019757	-0.307333441019757	-0.307333441019757	-0.307333441019757	-0.307333441019757
-0.19558548965118	-0.19558548965118	-0.19558548965118	-0.19558548965118	-0.19558548965118	-0.19558548965118
-0.191685734910238	-0.191685734910238	-0.191685734910238	-0.191685734910238	-0.191685734910238	-0.191685734910238
-0.171681407393308	-0.171681407393308	-0.171681407393308	-0.171681407393308	-0.171681407393308	-0.171681407393308
-0.0610745183757142	-0.0610745183757142	-0.0610745183757142	-0.0610745183757142	-0.0610745183757142	-0.0610745183757142
-0.0708156658245045	-0.0708156658245045	-0.0708156658245045	-0.0708156658245045	-0.0708156658245045	-0.0708156658245045
-0.127576348417521	-0.127576348417521	-0.127576348417521	-0.127576348417521	-0.127576348417521	-0.127576348417521
-0.147020103554354	-0.147020103554354	-0.147020103554354	-0.147020103554354	-0.147020103554354	-0.147020103554354
-0.157613139809112	-0.157613139809112	-0.157613139809112	-0.157613139809112	-0.157613139809112	-0.157613139809112
0.0136640845149113	0.0136640845149113	0.0136640845149113	0.0136640845149113	0.0136640845149113	0.0136640845149113
-0.145565186146244	-0.145565186146244	-0.145565186146244	-0.145565186146244	-0.145565186146244	-0.145565186146244
-0.118335232766582	-0.118335232766582	-0.118335232766582	-0.118335232766582	-0.118335232766582	-0.118335232766582
-0.00425722676756072	-0.00425722676756072	-0.00425722676756072	-0.00425722676756072	-0.00425722676756072	-0.00425722676756072
-0.0967906541618447	-0.0967906541618447	-0.0967906541618447	-0.0967906541618447	-0.0967906541618447	-0.0967906541618447
-0.0686383474986354	-0.0686383474986354	-0.0686383474986354	-0.0686383474986354	-0.0686383474986354	-0.0686383474986354
0.101407410053546	0.101407410053546	0.101407410053546	0.101407410053546	0.101407410053546	0.101407410053546
-0.00120716199628768	-0.00120716199628768	-0.00120716199628768	-0.00120716199628768	-0.00120716199628768	-0.00120716199628768
0.0421436023204853	0.0421436023204853	0.0421436023204853	0.0421436023204853	0.0421436023204853	0.0421436023204853
0.0988349532686231	0.0988349532686231	0.0988349532686231	0.0988349532686231	0.0988349532686231	0.0988349532686231
0.0721907706139467	0.0721907706139467	0.0721907706139467	0.0721907706139467	0.0721907706139467	0.0721907706139467
0.144072999521095	0.144072999521095	0.144072999521095	0.144072999521095	0.144072999521095	0.144072999521095
0.0791035560624657	0.0791035560624657	0.0791035560624657	0.0791035560624657	0.0791035560624657	0.0791035560624657
0.285923007000298	0.285923007000298	0.285923007000298	0.285923007000298	0.285923007000298	0.285923007000298
0.235078417877745	0.235078417877745	0.235078417877745	0.235078417877745	0.235078417877745	0.235078417877745
0.241735548459828	0.241735548459828	0.241735548459828	0.241735548459828	0.241735548459828	0.241735548459828
0.21957676645505	0.21957676645505	0.21957676645505	0.21957676645505	0.21957676645505	0.21957676645505
0.255496315914699	0.255496315914699	0.255496315914699	0.255496315914699	0.255496315914699	0.255496315914699
0.2176938717901	0.2176938717901	0.2176938717901	0.2176938717901	0.2176938717901	0.2176938717901
0.20284596470837	0.20284596470837	0.20284596470837	0.20284596470837	0.20284596470837	0.20284596470837
0.343511977905908	0.343511977905908	0.343511977905908	0.343511977905908	0.343511977905908	0.343511977905908
0.294790094645632	0.294790094645632	0.294790094645632	0.294790094645632	0.294790094645632	0.294790094645632
0.384834103643282	0.384834103643282	0.384834103643282	0.384834103643282	0.384834103643282	0.384834103643282
0.20958040314751	0.20958040314751	0.20958040314751	0.20958040314751	0.20958040314751	0.20958040314751
0.347698833185217	0.347698833185217	0.347698833185217	0.347698833185217	0.347698833185217	0.347698833185217
0.27480331095734	0.27480331095734	0.27480331095734	0.27480331095734	0.27480331095734	0.27480331095734
0.176490686134618	0.176490686134618	0.176490686134618	0.176490686134618	0.176490686134618	0.176490686134618
0.206599781610925	0.206599781610925	0.206599781610925	0.206599781610925	0.206599781610925	0.206599781610925
0.285293024319517	0.285293024319517	0.285293024319517	0.285293024319517	0.285293024319517	0.285293024319517
0.306497610292152	0.306497610292152	0.306497610292152	0.306497610292152	0.306497610292152	0.306497610292152
0.108698721595573	0.108698721595573	0.108698721595573	0.108698721595573	0.108698721595573	0.108698721595573
0.160418344508317	0.160418344508317	0.160418344508317	0.160418344508317	0.160418344508317	0.160418344508317
0.194675718063355	0.194675718063355	0.194675718063355	0.194675718063355	0.194675718063355	0.194675718063355
0.106049051530176	0.106049051530176	0.106049051530176	0.106049051530176	0.106049051530176	0.106049051530176
0.0812260761422072	0.0812260761422072	0.0812260761422072	0.0812260761422072	0.0812260761422072	0.0812260761422072
0.00293836787564744	0.00293836787564744	0.00293836787564744	0.00293836787564744	0.00293836787564744	0.00293836787564744
0.112727892640264	0.112727892640264	0.112727892640264	0.112727892640264	0.112727892640264	0.112727892640264
0.0932578852457755	0.0932578852457755	0.0932578852457755	0.0932578852457755	0.0932578852457755	0.0932578852457755
0.0304397097594911	0.0304397097594911	0.0304397097594911	0.0304397097594911	0.0304397097594911	0.0304397097594911
0.0275606567332739	0.0275606567332739	0.0275606567332739	0.0275606567332739	0.0275606567332739	0.0275606567332739
0.0526319440257745	0.0526319440257745	0.0526319440257745	0.0526319440257745	0.0526319440257745	0.0526319440257745
0.0407395463707467	0.0407395463707467	0.0407395463707467	0.0407395463707467	0.0407395463707467	0.0407395463707467
-0.0765300253958678	-0.0765300253958678	-0.0765300253958678	-0.0765300253958678	-0.0765300253958678	-0.0765300253958678
-0.127471994302962	-0.127471994302962	-0.127471994302962	-0.127471994302962	-0.127471994302962	-0.127471994302962
-0.054019559949866	-0.054019559949866	-0.054019559949866	-0.054019559949866	-0.054019559949866	-0.054019559949866
-0.0241743522248787	-0.0241743522248787	-0.0241743522248787	-0.0241743522248787	-0.0241743522248787	-0.0241743522248787
-0.14542571553421	-0.14542571553421	-0.14542571553421	-0.14542571553421	-0.14542571553421	-0.14542571553421
-0.115459438902001	-0.115459438902001	-0.115459438902001	-0.115459438902001	-0.115459438902001	-0.115459438902001
0.0201376739426985	0.0201376739426985	0.0201376739426985	0.0201376739426985	0.0201376739426985	0.0201376739426985
-0.126902478832699	-0.126902478832699	-0.126902478832699	-0.126902478832699	-0.126902478832699	-0.126902478832699
-0.0281998428189613	-0.0281998428189613	-0.0281998428189613	-0.0281998428189613	-0.0281998428189613	-0.0281998428189613
-0.167801885890596	-0.167801885890596	-0.167801885890596	-0.167801885890596	-0.167801885890596	-0.167801885890596
-0.0759363476954285	-0.0759363476954285	-0.0759363476954285	-0.0759363476954285	-0.0759363476954285	-0.0759363476954285
0.0202286577456428	0.0202286577456428	0.0202286577456428	0.0202286577456428	0.0202286577456428	0.0202286577456428
-0.125153043761632	-0.125153043761632	-0.125153043761632	-0.125153043761632	-0.125153043761632	-0.125153043761632
-0.155948102599361	-0.155948102599361	-0.155948102599361	-0.155948102599361	-0.155948102599361	-0.155948102599361
-0.000961982580402462	-0.000961982580402462	-0.000961982580402462	-0.000961982580402462	-0.000961982580402462	-0.000961982580402462
-0.0747195521233735	-0.0747195521233735	-0.0747195521233735	-0.0747195521233735	-0.0747195521233735	-0.0747195521233735
-0.105163112400822	-0.105163112400822	-0.105163112400822	-0.105163112400822	-0.105163112400822	-0.105163112400822
-0.122468517051316	-0.122468517051316	-0.122468517051316	-0.122468517051316	-0.122468517051316	-0.122468517051316
-0.080600215646809	-0.080600215646809	-0.080600215646809	-0.080600215646809	-0.080600215646809	-0.080600215646809
0.0123384607467241	0.0123384607467241	0.0123384607467241	0.0123384607467241	0.0123384607467241	0.0123384607467241
0.0623023966410099	0.0623023966410099	0.0623023966410099	0.0623023966410099	0.0623023966410099	0.0623023966410099
-0.0374914256806378	-0.0374914256806378	-0.0374914256806378	-0.0374914256806378	-0.0374914256806378	-0.0374914256806378
-0.00019142287166437	-0.00019142287166437	-0.00019142287166437	-0.00019142287166437	-0.00019142287166437	-0.00019142287166437
0.00927832783219262	0.00927832783219262	0.00927832783219262	0.00927832783219262	0.00927832783219262	0.00927832783219262
0.0766803920765231	0.0766803920765231	0.0766803920765231	0.0766803920765231	0.0766803920765231	0.0766803920765231
-0.00237956348219782	-0.00237956348219782	-0.00237956348219782	-0.00237956348219782	-0.00237956348219782	-0.00237956348219782
0.0839323522512178	0.0839323522512178	0.0839323522512178	0.0839323522512178	0.0839323522512178	0.0839323522512178
0.139399847724743	0.139399847724743	0.139399847724743	0.139399847724743	0.139399847724743	0.139399847724743
0.0722794579735105	0.0722794579735105	0.0722794579735105	0.0722794579735105	0.0722794579735105	0.0722794579735105
0.0654055808606462	0.0654055808606462	0.0654055808606462	0.0654055808606462	0.0654055808606462	0.0654055808606462
0.23668617065479	0.23668617065479	0.23668617065479	0.23668617065479	0.23668617065479	0.23668617065479
0.262501226839582	0.262501226839582	0.262501226839582	0.262501226839582	0.262501226839582	0.262501226839582
0.11363026529313	0.11363026529313	0.11363026529313	0.11363026529313	0.11363026529313	0.11363026529313
0.156984710727241	0.156984710727241	0.156984710727241	0.156984710727241	0.156984710727241	0.156984710727241
0.20592357043585	0.20592357043585	0.20592357043585	0.20592357043585	0.20592357043585	0.20592357043585
0.210559124693202	0.210559124693202	0.210559124693202	0.210559124693202	0.210559124693202	0.210559124693202
0.265648174148633	0.265648174148633	0.265648174148633	0.265648174148633	0.265648174148633	0.265648174148633
0.194992143014451	0.194992143014451	0.194992143014451	0.194992143014451	0.194992143014451	0.194992143014451
0.197630698456041	0.197630698456041	0.197630698456041	0.197630698456041	0.197630698456041	0.197630698456041
0.0567937166852398	0.0567937166852398	0.0567937166852398	0.0567937166852398	0.0567937166852398	0.0567937166852398
0.16728391366864	0.16728391366864	0.16728391366864	0.16728391366864	0.16728391366864	0.16728391366864
0.0308904413331213	0.0308904413331213	0.0308904413331213	0.0308904413331213	0.0308904413331213	0.0308904413331213
0.0193912061756302	0.0193912061756302	0.0193912061756302	0.0193912061756302	0.0193912061756302	0.0193912061756302
-0.043888391649396	-0.043888391649396	-0.043888391649396	-0.043888391649396	-0.043888391649396	-0.043888391649396
0.0778616516476688	0.0778616516476688	0.0778616516476688	0.0778616516476688	0.0778616516476688	0.0778616516476688
-0.057948402727229	-0.057948402727229	-0.057948402727229	-0.057948402727229	-0.057948402727229	-0.057948402727229
0.0255420608004951	0.0255420608004951	0.0255420608004951	0.0255420608004951	0.0255420608004951	0.0255420608004951
0.00469197022014278	0.00469197022014278	0.00469197022014278	0.00469197022014278	0.00469197022014278	0.00469197022014278
-0.0487900647207296	-0.0487900647207296	-0.0487900647207296	-0.0487900647207296	-0.0487900647207296	-0.0487900647207296
-0.00598074320649963	-0.00598074320649963	-0.00598074320649963	-0.00598074320649963	-0.00598074320649963	-0.00598074320649963
-0.0503927707424275	-0.0503927707424275	-0.0503927707424275	-0.0503927707424275	-0.0503927707424275	-0.0503927707424275
-0.210805702459777	-0.210805702459777	-0.210805702459777	-0.210805702459777	-0.210805702459777	-0.210805702459777
-0.185512242668421	-0.185512242668421	-0.185512242668421	-0.185512242668421	-0.185512242668421	-0.185512242668421
-0.0972730873371702	-0.0972730873371702	-0.0972730873371702	-0.0972730873371702	-0.0972730873371702	-0.0972730873371702
-0.323500911335476	-0.323500911335476	-0.323500911335476	-0.323500911335476	-0.323500911335476	-0.323500911335476
-0.256210758836527	-0.256210758836527	-0.256210758836527	-0.256210758836527	-0.256210758836527	-0.256210758836527
-0.222196472458717	-0.222196472458717	-0.222196472458717	-0.222196472458717	-0.222196472458717	-0.222196472458717
-0.0174842359731957	-0.0174842359731957	-0.0174842359731957	-0.0174842359731957	-0.0174842359731957	-0.0174842359731957
0.200315809066671	0.200315809066671	0.200315809066671	0.200315809066671	0.200315809066671	0.200315809066671
0.381858954215031	0.381858954215031	0.381858954215031	0.381858954215031	0.381858954215031	0.381858954215031
0.604989695596261	0.604989695596261	0.604989695596261	0.604989695596261	0.604989695596261	0.604989695596261
0.825555706668655	0.825555706668655	0.825555706668655	0.825555706668655	0.825555706668655	0.825555706668655
0.995630063636762	0.995630063636762	0.995630063636762	0.995630063636762	0.995630063636762	0.995630063636762
1.02891228909459	1.02891228909459	1.02891228909459	1.02891228909459	1.02891228909459	1.02891228909459
0.784790718755523	0.784790718755523	0.784790718755523	0.784790718755523	0.784790718755523	0.784790718755523
0.651811832927816	0.651811832927816	0.651811832927816	0.651811832927816	0.651811832927816	0.651811832927816
0.384808763777216	0.384808763777216	0.384808763777216	0.384808763777216	0.384808763777216	0.384808763777216
0.071160260925102	0.071160260925102	0.071160260925102	0.071160260925102	0.071160260925102	0.071160260925102
-0.178906481918147	-0.178906481918147	-0.178906481918147	-0.178906481918147	-0.178906481918147	-0.178906481918147
-0.249397901342369	-0.249397901342369	-0.249397901342369	-0.249397901342369	-0.249397901342369	-0.249397901342369
-0.357953772982999	-0.357953772982999	-0.357953772982999	-0.357953772982999	-0.357953772982999	-0.357953772982999
-0.332249569993663	-0.332249569993663	-0.332249569993663	-0.332249569993663	-0.332249569993663	-0.332249569993663
-0.180915096021144	-0.180915096021144	-0.180915096021144	-0.180915096021144	-0.180915096021144	-0.180915096021144
-0.181452134648481	-0.181452134648481	-0.181452134648481	-0.181452134648481	-0.181452134648481	-0.181452134648481
-0.211373918187361	-0.211373918187361	-0.211373918187361	-0.211373918187361	-0.211373918187361	-0.211373918187361
-0.038254148663602	-0.038254148663602	-0.038254148663602	-0.038254148663602	-0.038254148663602	-0.038254148663602
-0.125035701049056	-0.125035701049056	-0.125035701049056	-0.125035701049056	-0.125035701049056	-0.125035701049056
-0.119686680101496	-0.119686680101496	-0.119686680101496	-0.119686680101496	-0.119686680101496	-0.119686680101496
-0.0210051114244525	-0.0210051114244525	-0.0210051114244525	-0.0210051114244525	-0.0210051114244525	-0.0210051114244525
-0.00625509184734252	-0.00625509184734252	-0.00625509184734252	-0.00625509184734252	-0.00625509184734252	-0.00625509184734252
0.0203085588441044	0.0203085588441044	0.0203085588441044	0.0203085588441044	0.0203085588441044	0.0203085588441044
0.0257419725867419	0.0257419725867419	0.0257419725867419	0.0257419725867419	0.0257419725867419	0.0257419725867419
0.0770791914759428	0.0770791914759428	0.0770791914759428	0.0770791914759428	0.0770791914759428	0.0770791914759428
0.0445841458613599	0.0445841458613599	0.0445841458613599	0.0445841458613599	0.0445841458613599	0.0445841458613599
0.106049819002507	0.106049819002507	0.106049819002507	0.106049819002507	0.106049819002507	0.106049819002507
-0.0288953743782663	-0.0288953743782663	-0.0288953743782663	-0.0288953743782663	-0.0288953743782663	-0.0288953743782663
-0.0318856170422396	-0.0318856170422396	-0.0318856170422396	-0.0318856170422396	-0.0318856170422396	-0.0318856170422396
0.00165572770550847	0.00165572770550847	0.00165572770550847	0.00165572770550847	0.00165572770550847	0.00165572770550847
0.0913551064395625	0.0913551064395625	0.0913551064395625	0.0913551064395625	0.0913551064395625	0.0913551064395625
0.0526426661210277	0.0526426661210277	0.0526426661210277	0.0526426661210277	0.0526426661210277	0.0526426661210277
0.0849106515288748	0.0849106515288748	0.0849106515288748	0.0849106515288748	0.0849106515288748	0.0849106515288748
0.265815767084188	0.265815767084188	0.265815767084188	0.265815767084188	0.265815767084188	0.265815767084188
0.107162958770536	0.107162958770536	0.107162958770536	0.107162958770536	0.107162958770536	0.107162958770536
0.14802814943662	0.14802814943662	0.14802814943662	0.14802814943662	0.14802814943662	0.14802814943662
0.165145990380421	0.165145990380421	0.165145990380421	0.165145990380421	0.165145990380421	0.165145990380421
0.178379942588569	0.178379942588569	0.178379942588569	0.178379942588569	0.178379942588569	0.178379942588569
0.203482578959884	0.203482578959884	0.203482578959884	0.203482578959884	0.203482578959884	0.203482578959884
0.29230433052639	0.29230433052639	0.29230433052639	0.29230433052639	0.29230433052639	0.29230433052639
0.367433020968438	0.367433020968438	0.367433020968438	0.367433020968438	0.367433020968438	0.367433020968438
0.338837702972133	0.338837702972133	0.338837702972133	0.338837702972133	0.338837702972133	0.338837702972133
0.370100147739008	0.370100147739008	0.370100147739008	0.370100147739008	0.370100147739008	0.370100147739008
0.40631590565999	0.40631590565999	0.40631590565999	0.40631590565999	0.40631590565999	0.40631590565999
0.464672464894472	0.464672464894472	0.464672464894472	0.464672464894472	0.464672464894472	0.464672464894472
0.411970538634114	0.411970538634114	0.411970538634114	0.411970538634114	0.411970538634114	0.411970538634114
0.354228597235314	0.354228597235314	0.354228597235314	0.354228597235314	0.354228597235314	0.354228597235314
0.350232627669141	0.350232627669141	0.350232627669141	0.350232627669141	0.350232627669141	0.350232627669141
0.402163944827475	0.402163944827475	0.402163944827475	0.402163944827475	0.402163944827475	0.402163944827475
0.292693482130882	0.292693482130882	0.292693482130882	0.292693482130882	0.292693482130882	0.292693482130882
0.340043514742919	0.340043514742919	0.340043514742919	0.340043514742919	0.340043514742919	0.340043514742919
0.327483458147879	0.327483458147879	0.327483458147879	0.327483458147879	0.327483458147879	0.327483458147879
0.291539726763285	0.291539726763285	0.291539726763285	0.291539726763285	0.291539726763285	0.291539726763285
0.316633119625089	0.316633119625089	0.316633119625089	0.316633119625089	0.316633119625089	0.316633119625089
0.156365600639856	0.156365600639856	0.156365600639856	0.156365600639856	0.156365600639856	0.156365600639856
0.28437708134516	0.28437708134516	0.28437708134516	0.28437708134516	0.28437708134516	0.28437708134516
0.116448084029982	0.116448084029982	0.116448084029982	0.116448084029982	0.116448084029982	0.116448084029982
0.204024120466292	0.204024120466292	0.204024120466292	0.204024120466292	0.204024120466292	0.204024120466292
0.157287171064798	0.157287171064798	0.157287171064798	0.157287171064798	0.157287171064798	0.157287171064798
0.19191945453435	0.19191945453435	0.19191945453435	0.19191945453435	0.19191945453435	0.19191945453435
0.123847719427277	0.123847719427277	0.123847719427277	0.123847719427277	0.123847719427277	0.123847719427277
0.119818780485387	0.119818780485387	0.119818780485387	0.119818780485387	0.119818780485387	0.119818780485387
-0.0224884441654935	-0.0224884441654935	-0.0224884441654935	-0.0224884441654935	-0.0224884441654935	-0.0224884441654935
-0.010743418567651	-0.010743418567651	-0.010743418567651	-0.010743418567651	-0.010743418567651	-0.010743418567651
-0.0549159543742951	-0.0549159543742951	-0.0549159543742951	-0.0549159543742951	-0.0549159543742951	-0.0549159543742951
-0.0776897433264405	-0.0776897433264405	-0.0776897433264405	-0.0776897433264405	-0.0776897433264405	-0.0776897433264405
-0.00261110156454089	-0.00261110156454089	-0.00261110156454089	-0.00261110156454089	-0.00261110156454089	-0.00261110156454089
0.0700794270647562	0.0700794270647562	0.0700794270647562	0.0700794270647562	0.0700794270647562	0.0700794270647562
0.0141017170797762	0.0141017170797762	0.0141017170797762	0.0141017170797762	0.0141017170797762	0.0141017170797762
0.0863530139882131	0.0863530139882131	0.0863530139882131	0.0863530139882131	0.0863530139882131	0.0863530139882131
-0.0440292041818508	-0.0440292041818508	-0.0440292041818508	-0.0440292041818508	-0.0440292041818508	-0.0440292041818508
-0.0864840147894104	-0.0864840147894104	-0.0864840147894104	-0.0864840147894104	-0.0864840147894104	-0.0864840147894104
0.0652104538474007	0.0652104538474007	0.0652104538474007	0.0652104538474007	0.0652104538474007	0.0652104538474007
-0.0253261935414839	-0.0253261935414839	-0.0253261935414839	-0.0253261935414839	-0.0253261935414839	-0.0253261935414839
0.0771290155722799	0.0771290155722799	0.0771290155722799	0.0771290155722799	0.0771290155722799	0.0771290155722799
0.0267792897377468	0.0267792897377468	0.0267792897377468	0.0267792897377468	0.0267792897377468	0.0267792897377468
0.00070343106879801	0.00070343106879801	0.00070343106879801	0.00070343106879801	0.00070343106879801	0.00070343106879801
0.0860302287665387	0.0860302287665387	0.0860302287665387	0.0860302287665387	0.0860302287665387	0.0860302287665387
-0.0418109279438268	-0.0418109279438268	-0.0418109279438268	-0.0418109279438268	-0.0418109279438268	-0.0418109279438268
-0.0790625475448084	-0.0790625475448084	-0.0790625475448084	-0.0790625475448084	-0.0790625475448084	-0.0790625475448084
-0.0706530485954858	-0.0706530485954858	-0.0706530485954858	-0.0706530485954858	-0.0706530485954858	-0.0706530485954858
0.0875325369120047	0.0875325369120047	0.0875325369120047	0.0875325369120047	0.0875325369120047	0.0875325369120047
0.105136469086985	0.105136469086985	0.105136469086985	0.105136469086985	0.105136469086985	0.105136469086985
0.00260779065147951	0.00260779065147951	0.00260779065147951	0.00260779065147951	0.00260779065147951	0.00260779065147951
0.0641399373814373	0.0641399373814373	0.0641399373814373	0.0641399373814373	0.0641399373814373	0.0641399373814373
0.107657786314423	0.107657786314423	0.107657786314423	0.107657786314423	0.107657786314423	0.107657786314423
-0.0241917833195242	-0.0241917833195242	-0.0241917833195242	-0.0241917833195242	-0.0241917833195242	-0.0241917833195242
0.061111720471612	0.061111720471612	0.061111720471612	0.061111720471612	0.061111720471612	0.061111720471612
0.0774824517997973	0.0774824517997973	0.0774824517997973	0.0774824517997973	0.0774824517997973	0.0774824517997973
0.184861853335972	0.184861853335972	0.184861853335972	0.184861853335972	0.184861853335972	0.184861853335972
0.0436427584141043	0.0436427584141043	0.0436427584141043	0.0436427584141043	0.0436427584141043	0.0436427584141043
0.11862413934481	0.11862413934481	0.11862413934481	0.11862413934481	0.11862413934481	0.11862413934481
0.166589377957952	0.166589377957952	0.166589377957952	0.166589377957952	0.166589377957952	0.166589377957952
0.274326843638731	0.274326843638731	0.274326843638731	0.274326843638731	0.274326843638731	0.274326843638731
0.258800571930867	0.258800571930867	0.258800571930867	0.258800571930867	0.258800571930867	0.258800571930867
0.166567163574528	0.166567163574528	0.166567163574528	0.166567163574528	0.166567163574528	0.166567163574528
0.323894913595039	0.323894913595039	0.323894913595039	0.323894913595039	0.323894913595039	0.323894913595039
0.276011870058817	0.276011870058817	0.276011870058817	0.276011870058817	0.276011870058817	0.276011870058817
0.366630264610016	0.366630264610016	0.366630264610016	0.366630264610016	0.366630264610016	0.366630264610016
0.244366909171042	0.244366909171042	0.244366909171042	0.244366909171042	0.244366909171042	0.244366909171042
0.20121456020299	0.20121456020299	0.20121456020299	0.20121456020299	0.20121456020299	0.20121456020299
0.311588396748889	0.311588396748889	0.311588396748889	0.311588396748889	0.311588396748889	0.311588396748889
0.200921150102043	0.200921150102043	0.200921150102043	0.200921150102043	0.200921150102043	0.200921150102043
0.25715208594053	0.25715208594053	0.25715208594053	0.25715208594053	0.25715208594053	0.25715208594053
0.275490640053511	0.275490640053511	0.275490640053511	0.275490640053511	0.275490640053511	0.275490640053511
0.270247402055598	0.270247402055598	0.270247402055598	0.270247402055598	0.270247402055598	0.270247402055598
0.13986720263348	0.13986720263348	0.13986720263348	0.13986720263348	0.13986720263348	0.13986720263348
0.100477763938866	0.100477763938866	0.100477763938866	0.100477763938866	0.100477763938866	0.100477763938866
0.13081248832561	0.13081248832561	0.13081248832561	0.13081248832561	0.13081248832561	0.13081248832561
0.18571495109956	0.18571495109956	0.18571495109956	0.18571495109956	0.18571495109956	0.18571495109956
0.00369249606885319	0.00369249606885319	0.00369249606885319	0.00369249606885319	0.00369249606885319	0.00369249606885319
0.0807021822799922	0.0807021822799922	0.0807021822799922	0.0807021822799922	0.0807021822799922	0.0807021822799922
0.0176733902739462	0.0176733902739462	0.0176733902739462	0.0176733902739462	0.0176733902739462	0.0176733902739462
0.086691928076706	0.086691928076706	0.086691928076706	0.086691928076706	0.086691928076706	0.086691928076706
-0.0285852298558064	-0.0285852298558064	-0.0285852298558064	-0.0285852298558064	-0.0285852298558064	-0.0285852298558064
-0.00510057466018719	-0.00510057466018719	-0.00510057466018719	-0.00510057466018719	-0.00510057466018719	-0.00510057466018719
-0.0105940254499542	-0.0105940254499542	-0.0105940254499542	-0.0105940254499542	-0.0105940254499542	-0.0105940254499542
-0.0605754719086742	-0.0605754719086742	-0.0605754719086742	-0.0605754719086742	-0.0605754719086742	-0.0605754719086742
-0.155725247197819	-0.155725247197819	-0.155725247197819	-0.155725247197819	-0.155725247197819	-0.155725247197819
-0.185688075807868	-0.185688075807868	-0.185688075807868	-0.185688075807868	-0.185688075807868	-0.185688075807868
-0.243812274719606	-0.243812274719606	-0.243812274719606	-0.243812274719606	-0.243812274719606	-0.243812274719606
-0.220835548707737	-0.220835548707737	-0.220835548707737	-0.220835548707737	-0.220835548707737	-0.220835548707737
0.0129113568082737	0.0129113568082737	0.0129113568082737	0.0129113568082737	0.0129113568082737	0.0129113568082737
0.00449470166179544	0.00449470166179544	0.00449470166179544	0.00449470166179544	0.00449470166179544	0.00449470166179544
0.239765342750232	0.239765342750232	0.239765342750232	0.239765342750232	0.239765342750232	0.239765342750232
0.609087701566313	0.609087701566313	0.609087701566313	0.609087701566313	0.609087701566313	0.609087701566313
0.778086543277825	0.778086543277825	0.778086543277825	0.778086543277825	0.778086543277825	0.778086543277825
1.10899534130287	1.10899534130287	1.10899534130287	1.10899534130287	1.10899534130287	1.10899534130287
1.04989121195582	1.04989121195582	1.04989121195582	1.04989121195582	1.04989121195582	1.04989121195582
0.980818603577797	0.980818603577797	0.980818603577797	0.980818603577797	0.980818603577797	0.980818603577797
0.789031836871534	0.789031836871534	0.789031836871534	0.789031836871534	0.789031836871534	0.789031836871534
0.530862835738022	0.530862835738022	0.530862835738022	0.530862835738022	0.530862835738022	0.530862835738022
0.301670411565381	0.301670411565381	0.301670411565381	0.301670411565381	0.301670411565381	0.301670411565381
0.104743181041645	0.104743181041645	0.104743181041645	0.104743181041645	0.104743181041645	0.104743181041645
-0.0705234980227056	-0.0705234980227056	-0.0705234980227056	-0.0705234980227056	-0.0705234980227056	-0.0705234980227056
-0.167523632481288	-0.167523632481288	-0.167523632481288	-0.167523632481288	-0.167523632481288	-0.167523632481288
-0.282493572640056	-0.282493572640056	-0.282493572640056	-0.282493572640056	-0.282493572640056	-0.282493572640056
-0.333115489838034	-0.333115489838034	-0.333115489838034	-0.333115489838034	-0.333115489838034	-0.333115489838034
-0.174421419062141	-0.174421419062141	-0.174421419062141	-0.174421419062141	-0.174421419062141	-0.174421419062141
-0.131290209039484	-0.131290209039484	-0.131290209039484	-0.131290209039484	-0.131290209039484	-0.131290209039484
-0.122373841933099	-0.122373841933099	-0.122373841933099	-0.122373841933099	-0.122373841933099	-0.122373841933099
-0.0398886270812673	-0.0398886270812673	-0.0398886270812673	-0.0398886270812673	-0.0398886270812673	-0.0398886270812673
-0.0264629461882744	-0.0264629461882744	-0.0264629461882744	-0.0264629461882744	-0.0264629461882744	-0.0264629461882744
0.0104242376135177	0.0104242376135177	0.0104242376135177	0.0104242376135177	0.0104242376135177	0.0104242376135177
0.0854442823813273	0.0854442823813273	0.0854442823813273	0.0854442823813273	0.0854442823813273	0.0854442823813273
-0.0372308329328864	-0.0372308329328864	-0.0372308329328864	-0.0372308329328864	-0.0372308329328864	-0.0372308329328864
-0.0335211052239695	-0.0335211052239695	-0.0335211052239695	-0.0335211052239695	-0.0335211052239695	-0.0335211052239695
0.0343324673895696	0.0343324673895696	0.0343324673895696	0.0343324673895696	0.0343324673895696	0.0343324673895696
0.106178638815365	0.106178638815365	0.106178638815365	0.106178638815365	0.106178638815365	0.106178638815365
0.00970897046532232	0.00970897046532232	0.00970897046532232	0.00970897046532232	0.00970897046532232	0.00970897046532232
0.144158444210516	0.144158444210516	0.144158444210516	0.144158444210516	0.144158444210516	0.144158444210516
0.0784835070568168	0.0784835070568168	0.0784835070568168	0.0784835070568168	0.0784835070568168	0.0784835070568168
0.171984142653537	0.171984142653537	0.171984142653537	0.171984142653537	0.171984142653537	0.171984142653537
0.206753460581886	0.206753460581886	0.206753460581886	0.206753460581886	0.206753460581886	0.206753460581886
0.20156110270744	0.20156110270744	0.20156110270744	0.20156110270744	0.20156110270744	0.20156110270744
0.284164548746619	0.284164548746619	0.284164548746619	0.284164548746619	0.284164548746619	0.284164548746619
0.304363609379362	0.304363609379362	0.304363609379362	0.304363609379362	0.304363609379362	0.304363609379362
0.175898008767758	0.175898008767758	0.175898008767758	0.175898008767758	0.175898008767758	0.175898008767758
0.178598817376133	0.178598817376133	0.178598817376133	0.178598817376133	0.178598817376133	0.178598817376133
0.365640207223282	0.365640207223282	0.365640207223282	0.365640207223282	0.365640207223282	0.365640207223282
0.398368564237402	0.398368564237402	0.398368564237402	0.398368564237402	0.398368564237402	0.398368564237402
0.320558818470169	0.320558818470169	0.320558818470169	0.320558818470169	0.320558818470169	0.320558818470169
0.432998040003521	0.432998040003521	0.432998040003521	0.432998040003521	0.432998040003521	0.432998040003521
0.373277340058769	0.373277340058769	0.373277340058769	0.373277340058769	0.373277340058769	0.373277340058769
0.425103933802011	0.425103933802011	0.425103933802011	0.425103933802011	0.425103933802011	0.425103933802011
0.485362726753459	0.485362726753459	0.485362726753459	0.485362726753459	0.485362726753459	0.485362726753459
0.334582984883	0.334582984883	0.334582984883	0.334582984883	0.334582984883	0.334582984883
0.382096556953147	0.382096556953147	0.382096556953147	0.382096556953147	0.382096556953147	0.382096556953147
0.373757148133338	0.373757148133338	0.373757148133338	0.373757148133338	0.373757148133338	0.373757148133338
0.418424343773771	0.418424343773771	0.418424343773771	0.418424343773771	0.418424343773771	0.418424343773771
0.342543641562891	0.342543641562891	0.342543641562891	0.342543641562891	0.342543641562891	0.342543641562891
0.361886096856383	0.361886096856383	0.361886096856383	0.361886096856383	0.361886096856383	0.361886096856383
0.516441125347103	0.516441125347103	0.516441125347103	0.516441125347103	0.516441125347103	0.516441125347103
0.370294555356286	0.370294555356286	0.370294555356286	0.370294555356286	0.370294555356286	0.370294555356286
0.471827574821143	0.471827574821143	0.471827574821143	0.471827574821143	0.471827574821143	0.471827574821143
0.401964835704848	0.401964835704848	0.401964835704848	0.401964835704848	0.401964835704848	0.401964835704848
0.322989726791751	0.322989726791751	0.322989726791751	0.322989726791751	0.322989726791751	0.322989726791751
0.378503946134374	0.378503946134374	0.378503946134374	0.378503946134374	0.378503946134374	0.378503946134374
0.236250919984668	0.236250919984668	0.236250919984668	0.236250919984668	0.236250919984668	0.236250919984668
0.311404409582441	0.311404409582441	0.311404409582441	0.311404409582441	0.311404409582441	0.311404409582441
0.305669617317599	0.305669617317599	0.305669617317599	0.305669617317599	0.305669617317599	0.305669617317599
0.13922839175481	0.13922839175481	0.13922839175481	0.13922839175481	0.13922839175481	0.13922839175481
0.241448951782041	0.241448951782041	0.241448951782041	0.241448951782041	0.241448951782041	0.241448951782041
0.192398182974078	0.192398182974078	0.192398182974078	0.192398182974078	0.192398182974078	0.192398182974078
0.112863568511523	0.112863568511523	0.112863568511523	0.112863568511523	0.112863568511523	0.112863568511523
0.163586069517793	0.163586069517793	0.163586069517793	0.163586069517793	0.163586069517793	0.163586069517793
0.133783032279737	0.133783032279737	0.133783032279737	0.133783032279737	0.133783032279737	0.133783032279737
-0.000971973879725918	-0.000971973879725918	-0.000971973879725918	-0.000971973879725918	-0.000971973879725918	-0.000971973879725918
-0.00697601908048541	-0.00697601908048541	-0.00697601908048541	-0.00697601908048541	-0.00697601908048541	-0.00697601908048541
0.0780634788399468	0.0780634788399468	0.0780634788399468	0.0780634788399468	0.0780634788399468	0.0780634788399468
-0.0261072462363306	-0.0261072462363306	-0.0261072462363306	-0.0261072462363306	-0.0261072462363306	-0.0261072462363306
0.144786747450896	0.144786747450896	0.144786747450896	0.144786747450896	0.144786747450896	0.144786747450896
0.0984374966910685	0.0984374966910685	0.0984374966910685	0.0984374966910685	0.0984374966910685	0.0984374966910685
0.03836925938972	0.03836925938972	0.03836925938972	0.03836925938972	0.03836925938972	0.03836925938972
0.0613114625360663	0.0613114625360663	0.0613114625360663	0.0613114625360663	0.0613114625360663	0.0613114625360663
0.0550715284518496	0.0550715284518496	0.0550715284518496	0.0550715284518496	0.0550715284518496	0.0550715284518496
0.104776129155891	0.104776129155891	0.104776129155891	0.104776129155891	0.104776129155891	0.104776129155891
0.121274700917549	0.121274700917549	0.121274700917549	0.121274700917549	0.121274700917549	0.121274700917549
0.100250620374705	0.100250620374705	0.100250620374705	0.100250620374705	0.100250620374705	0.100250620374705
0.0636216812540155	0.0636216812540155	0.0636216812540155	0.0636216812540155	0.0636216812540155	0.0636216812540155
-0.00740232922861433	-0.00740232922861433	-0.00740232922861433	-0.00740232922861433	-0.00740232922861433	-0.00740232922861433
0.0993232763326206	0.0993232763326206	0.0993232763326206	0.0993232763326206	0.0993232763326206	0.0993232763326206
0.0799488186122685	0.0799488186122685	0.0799488186122685	0.0799488186122685	0.0799488186122685	0.0799488186122685
-0.00182164792246037	-0.00182164792246037	-0.00182164792246037	-0.00182164792246037	-0.00182164792246037	-0.00182164792246037
0.131794467665197	0.131794467665197	0.131794467665197	0.131794467665197	0.131794467665197	0.131794467665197
0.154751025869797	0.154751025869797	0.154751025869797	0.154751025869797	0.154751025869797	0.154751025869797
0.130197358935509	0.130197358935509	0.130197358935509	0.130197358935509	0.130197358935509	0.130197358935509
0.166294145959572	0.166294145959572	0.166294145959572	0.166294145959572	0.166294145959572	0.166294145959572
0.164493757924225	0.164493757924225	0.164493757924225	0.164493757924225	0.164493757924225	0.164493757924225
0.0777153894143894	0.0777153894143894	0.0777153894143894	0.0777153894143894	0.0777153894143894	0.0777153894143894
0.00220307873580594	0.00220307873580594	0.00220307873580594	0.00220307873580594	0.00220307873580594	0.00220307873580594
0.0559600045295164	0.0559600045295164	0.0559600045295164	0.0559600045295164	0.0559600045295164	0.0559600045295164
0.160315763388416	0.160315763388416	0.160315763388416	0.160315763388416	0.160315763388416	0.160315763388416
0.115454937644797	0.115454937644797	0.115454937644797	0.115454937644797	0.115454937644797	0.115454937644797
0.188077584981042	0.188077584981042	0.188077584981042	0.188077584981042	0.188077584981042	0.188077584981042
0.245984323410325	0.245984323410325	0.245984323410325	0.245984323410325	0.245984323410325	0.245984323410325
0.132951984989823	0.132951984989823	0.132951984989823	0.132951984989823	0.132951984989823	0.132951984989823
0.150193900794968	0.150193900794968	0.150193900794968	0.150193900794968	0.150193900794968	0.150193900794968
0.291460940515654	0.291460940515654	0.291460940515654	0.291460940515654	0.291460940515654	0.291460940515654
0.310888750641674	0.310888750641674	0.310888750641674	0.310888750641674	0.310888750641674	0.310888750641674
0.396872818340833	0.396872818340833	0.396872818340833	0.396872818340833	0.396872818340833	0.396872818340833
0.273158583658011	0.273158583658011	0.273158583658011	0.273158583658011	0.273158583658011	0.273158583658011
0.381953868215014	0.381953868215014	0.381953868215014	0.381953868215014	0.381953868215014	0.381953868215014
0.337330887755723	0.337330887755723	0.337330887755723	0.337330887755723	0.337330887755723	0.337330887755723
0.400479428904988	0.400479428904988	0.400479428904988	0.400479428904988	0.400479428904988	0.400479428904988
0.332496854507472	0.332496854507472	0.332496854507472	0.332496854507472	0.332496854507472	0.332496854507472
0.358528595572576	0.358528595572576	0.358528595572576	0.358528595572576	0.358528595572576	0.358528595572576
0.390183249252859	0.390183249252859	0.390183249252859	0.390183249252859	0.390183249252859	0.390183249252859
0.344709085215068	0.344709085215068	0.344709085215068	0.344709085215068	0.344709085215068	0.344709085215068
0.21548827947247	0.21548827947247	0.21548827947247	0.21548827947247	0.21548827947247	0.21548827947247
0.134775224466987	0.134775224466987	0.134775224466987	0.134775224466987	0.134775224466987	0.134775224466987
0.247317430417475	0.247317430417475	0.247317430417475	0.247317430417475	0.247317430417475	0.247317430417475
0.114832697124534	0.114832697124534	0.114832697124534	0.114832697124534	0.114832697124534	0.114832697124534
0.228348666454091	0.228348666454091	0.228348666454091	0.228348666454091	0.228348666454091	0.228348666454091
0.0753687634433657	0.0753687634433657	0.0753687634433657	0.0753687634433657	0.0753687634433657	0.0753687634433657
0.156515012692919	0.156515012692919	0.156515012692919	0.156515012692919	0.156515012692919	0.156515012692919
0.0128120762765142	0.0128120762765142	0.0128120762765142	0.0128120762765142	0.0128120762765142	0.0128120762765142
-0.00474369246063586	-0.00474369246063586	-0.00474369246063586	-0.00474369246063586	-0.00474369246063586	-0.00474369246063586
0.103445009474998	0.103445009474998	0.103445009474998	0.103445009474998	0.103445009474998	0.103445009474998
-0.0136714816090075	-0.0136714816090075	-0.0136714816090075	-0.0136714816090075	-0.0136714816090075	-0.0136714816090075
0.019774601000162	0.019774601000162	0.019774601000162	0.019774601000162	0.019774601000162	0.019774601000162
-0.0877313185394123	-0.0877313185394123	-0.0877313185394123	-0.0877313185394123	-0.0877313185394123	-0.0877313185394123
-0.0397987650973464	-0.0397987650973464	-0.0397987650973464	-0.0397987650973464	-0.0397987650973464	-0.0397987650973464
-0.0379077207575403	-0.0379077207575403	-0.0379077207575403	-0.0379077207575403	-0.0379077207575403	-0.0379077207575403
-0.138955917722871	-0.138955917722871	-0.138955917722871	-0.138955917722871	-0.138955917722871	-0.138955917722871
-0.107695756411565	-0.107695756411565	-0.107695756411565	-0.107695756411565	-0.107695756411565	-0.107695756411565
-0.0848038174442242	-0.0848038174442242	-0.0848038174442242	-0.0848038174442242	-0.0848038174442242	-0.0848038174442242
0.0284698208629344	0.0284698208629344	0.0284698208629344	0.0284698208629344	0.0284698208629344	0.0284698208629344
0.287283860662657	0.287283860662657	0.287283860662657	0.287283860662657	0.287283860662657	0.287283860662657
0.635827226874375	0.635827226874375	0.635827226874375	0.635827226874375	0.635827226874375	0.635827226874375
0.834028033355323	0.834028033355323	0.834028033355323	0.834028033355323	0.834028033355323	0.834028033355323
1.12960810984503	1.12960810984503	1.12960810984503	1.12960810984503	1.12960810984503	1.12960810984503
1.23210984081367	1.23210984081367	1.23210984081367	1.23210984081367	1.23210984081367	1.23210984081367
1.13566138532908	1.13566138532908	1.13566138532908	1.13566138532908	1.13566138532908	1.13566138532908
0.967546805634002	0.967546805634002	0.967546805634002	0.967546805634002	0.967546805634002	0.967546805634002
0.616444955429931	0.616444955429931	0.616444955429931	0.616444955429931	0.616444955429931	0.616444955429931
0.386911936576399	0.386911936576399	0.386911936576399	0.386911936576399	0.386911936576399	0.386911936576399
0.0899853594209847	0.0899853594209847	0.0899853594209847	0.0899853594209847	0.0899853594209847	0.0899853594209847
-0.143995272830298	-0.143995272830298	-0.143995272830298	-0.143995272830298	-0.143995272830298	-0.143995272830298
-0.268886332965508	-0.268886332965508	-0.268886332965508	-0.268886332965508	-0.268886332965508	-0.268886332965508
-0.31304963257526	-0.31304963257526	-0.31304963257526	-0.31304963257526	-0.31304963257526	-0.31304963257526
-0.232266555423005	-0.232266555423005	-0.232266555423005	-0.232266555423005	-0.232266555423005	-0.232266555423005
-0.233643796476138	-0.233643796476138	-0.233643796476138	-0.233643796476138	-0.233643796476138	-0.233643796476138
-0.148118016507471	-0.148118016507471	-0.148118016507471	-0.148118016507471	-0.148118016507471	-0.148118016507471
-0.0953447236153912	-0.0953447236153912	-0.0953447236153912	-0.0953447236153912	-0.0953447236153912	-0.0953447236153912
0.0436236255283007	0.0436236255283007	0.0436236255283007	0.0436236255283007	0.0436236255283007	0.0436236255283007
-0.0487939585167002	-0.0487939585167002	-0.0487939585167002	-0.0487939585167002	-0.0487939585167002	-0.0487939585167002
0.0798667914768821	0.0798667914768821	0.0798667914768821	0.0798667914768821	0.0798667914768821	0.0798667914768821
0.0467597977130157	0.0467597977130157	0.0467597977130157	0.0467597977130157	0.0467597977130157	0.0467597977130157
0.0100082014418219	0.0100082014418219	0.0100082014418219	0.0100082014418219	0.0100082014418219	0.0100082014418219
0.0523021359805819	0.0523021359805819	0.0523021359805819	0.0523021359805819	0.0523021359805819	0.0523021359805819
0.00711774596945204	0.00711774596945204	0.00711774596945204	0.00711774596945204	0.00711774596945204	0.00711774596945204
0.0542300295773345	0.0542300295773345	0.0542300295773345	0.0542300295773345	0.0542300295773345	0.0542300295773345
0.0891100640009683	0.0891100640009683	0.0891100640009683	0.0891100640009683	0.0891100640009683	0.0891100640009683
0.134819432556452	0.134819432556452	0.134819432556452	0.134819432556452	0.134819432556452	0.134819432556452
0.156141810842924	0.156141810842924	0.156141810842924	0.156141810842924	0.156141810842924	0.156141810842924
0.221275142617353	0.221275142617353	0.221275142617353	0.221275142617353	0.221275142617353	0.221275142617353
0.0997684069992138	0.0997684069992138	0.0997684069992138	0.0997684069992138	0.0997684069992138	0.0997684069992138
0.283719774974187	0.283719774974187	0.283719774974187	0.283719774974187	0.283719774974187	0.283719774974187
0.206042182058087	0.206042182058087	0.206042182058087	0.206042182058087	0.206042182058087	0.206042182058087
0.208460830824037	0.208460830824037	0.208460830824037	0.208460830824037	0.208460830824037	0.208460830824037
0.195943119076034	0.195943119076034	0.195943119076034	0.195943119076034	0.195943119076034	0.195943119076034
0.376478651828332	0.376478651828332	0.376478651828332	0.376478651828332	0.376478651828332	0.376478651828332
0.409411847370632	0.409411847370632	0.409411847370632	0.409411847370632	0.409411847370632	0.409411847370632
0.372700999633158	0.372700999633158	0.372700999633158	0.372700999633158	0.372700999633158	0.372700999633158
0.37721260961137	0.37721260961137	0.37721260961137	0.37721260961137	0.37721260961137	0.37721260961137
0.414962103053775	0.414962103053775	0.414962103053775	0.414962103053775	0.414962103053775	0.414962103053775
0.401438120086978	0.401438120086978	0.401438120086978	0.401438120086978	0.401438120086978	0.401438120086978
0.521026475985804	0.521026475985804	0.521026475985804	0.521026475985804	0.521026475985804	0.521026475985804
0.413131880229732	0.413131880229732	0.413131880229732	0.413131880229732	0.413131880229732	0.413131880229732
0.523904850528602	0.523904850528602	0.523904850528602	0.523904850528602	0.523904850528602	0.523904850528602
0.400923768680071	0.400923768680071	0.400923768680071	0.400923768680071	0.400923768680071	0.400923768680071
0.430255110059108	0.430255110059108	0.430255110059108	0.430255110059108	0.430255110059108	0.430255110059108
0.441769604343463	0.441769604343463	0.441769604343463	0.441769604343463	0.441769604343463	0.441769604343463
0.564084952255986	0.564084952255986	0.564084952255986	0.564084952255986	0.564084952255986	0.564084952255986
0.556281632950222	0.556281632950222	0.556281632950222	0.556281632950222	0.556281632950222	0.556281632950222
0.524697213226242	0.524697213226242	0.524697213226242	0.524697213226242	0.524697213226242	0.524697213226242
0.375068127844321	0.375068127844321	0.375068127844321	0.375068127844321	0.375068127844321	0.375068127844321
0.431160676475851	0.431160676475851	0.431160676475851	0.431160676475851	0.431160676475851	0.431160676475851
0.333789391487786	0.333789391487786	0.333789391487786	0.333789391487786	0.333789391487786	0.333789391487786
0.457537677999252	0.457537677999252	0.457537677999252	0.457537677999252	0.457537677999252	0.457537677999252
0.424695975632392	0.424695975632392	0.424695975632392	0.424695975632392	0.424695975632392	0.424695975632392
0.36358248652177	0.36358248652177	0.36358248652177	0.36358248652177	0.36358248652177	0.36358248652177
0.266536272703894	0.266536272703894	0.266536272703894	0.266536272703894	0.266536272703894	0.266536272703894
0.256429643564109	0.256429643564109	0.256429643564109	0.256429643564109	0.256429643564109	0.256429643564109
0.271276376813189	0.271276376813189	0.271276376813189	0.271276376813189	0.271276376813189	0.271276376813189
0.289918941483323	0.289918941483323	0.289918941483323	0.289918941483323	0.289918941483323	0.289918941483323
0.189125283180143	0.189125283180143	0.189125283180143	0.189125283180143	0.189125283180143	0.189125283180143
0.215307908728008	0.215307908728008	0.215307908728008	0.215307908728008	0.215307908728008	0.215307908728008
0.145626210166452	0.145626210166452	0.145626210166452	0.145626210166452	0.145626210166452	0.145626210166452
0.0652823968633889	0.0652823968633889	0.0652823968633889	0.0652823968633889	0.0652823968633889	0.0652823968633889
0.146499236871144	0.146499236871144	0.146499236871144	0.146499236871144	0.146499236871144	0.146499236871144
0.120123263443718	0.120123263443718	0.120123263443718	0.120123263443718	0.120123263443718	0.120123263443718
0.0969810439463042	0.0969810439463042	0.0969810439463042	0.0969810439463042	0.0969810439463042	0.0969810439463042
0.131437891481112	0.131437891481112	0.131437891481112	0.131437891481112	0.131437891481112	0.131437891481112
-0.00601655493011539	-0.00601655493011539	-0.00601655493011539	-0.00601655493011539	-0.00601655493011539	-0.00601655493011539
-0.0295910590058863	-0.0295910590058863	-0.0295910590058863	-0.0295910590058863	-0.0295910590058863	-0.0295910590058863
0.0641957462457019	0.0641957462457019	0.0641957462457019	0.0641957462457019	0.0641957462457019	0.0641957462457019
0.147748592926875	0.147748592926875	0.147748592926875	0.147748592926875	0.147748592926875	0.147748592926875
0.0712271722328482	0.0712271722328482	0.0712271722328482	0.0712271722328482	0.0712271722328482	0.0712271722328482
0.153530378711466	0.153530378711466	0.153530378711466	0.153530378711466	0.153530378711466	0.153530378711466
0.0955005064800242	0.0955005064800242	0.0955005064800242	0.0955005064800242	0.0955005064800242	0.0955005064800242
0.062972077872582	0.062972077872582	0.062972077872582	0.062972077872582	0.062972077872582	0.062972077872582
0.0712734130419967	0.0712734130419967	0.0712734130419967	0.0712734130419967	0.0712734130419967	0.0712734130419967
0.130222512826754	0.130222512826754	0.130222512826754	0.130222512826754	0.130222512826754	0.130222512826754
0.141928286907155	0.141928286907155	0.141928286907155	0.141928286907155	0.141928286907155	0.141928286907155
0.133859329906461	0.133859329906461	0.133859329906461	0.133859329906461	0.133859329906461	0.133859329906461
0.0108230204053658	0.0108230204053658	0.0108230204053658	0.0108230204053658	0.0108230204053658	0.0108230204053658
-0.0262532126582076	-0.0262532126582076	-0.0262532126582076	-0.0262532126582076	-0.0262532126582076	-0.0262532126582076
0.13560883811495	0.13560883811495	0.13560883811495	0.13560883811495	0.13560883811495	0.13560883811495
0.0201284666683619	0.0201284666683619	0.0201284666683619	0.0201284666683619	0.0201284666683619	0.0201284666683619
0.0408889166989731	0.0408889166989731	0.0408889166989731	0.0408889166989731	0.0408889166989731	0.0408889166989731
0.161408729683975	0.161408729683975	0.161408729683975	0.161408729683975	0.161408729683975	0.161408729683975
0.0954693656628123	0.0954693656628123	0.0954693656628123	0.0954693656628123	0.0954693656628123	0.0954693656628123
0.0848320423545211	0.0848320423545211	0.0848320423545211	0.0848320423545211	0.0848320423545211	0.0848320423545211
0.115211742449469	0.115211742449469	0.115211742449469	0.115211742449469	0.115211742449469	0.115211742449469
0.18679050836169	0.18679050836169	0.18679050836169	0.18679050836169	0.18679050836169	0.18679050836169
0.196490374598729	0.196490374598729	0.196490374598729	0.196490374598729	0.196490374598729	0.196490374598729
0.269495072379047	0.269495072379047	0.269495072379047	0.269495072379047	0.269495072379047	0.269495072379047
0.199473971198272	0.199473971198272	0.199473971198272	0.199473971198272	0.199473971198272	0.199473971198272
0.231680458348165	0.231680458348165	0.231680458348165	0.231680458348165	0.231680458348165	0.231680458348165
0.165592810941542	0.165592810941542	0.165592810941542	0.165592810941542	0.165592810941542	0.165592810941542
0.348364969298257	0.348364969298257	0.348364969298257	0.348364969298257	0.348364969298257	0.348364969298257
0.245585546920678	0.245585546920678	0.245585546920678	0.245585546920678	0.245585546920678	0.245585546920678
0.244504028799953	0.244504028799953	0.244504028799953	0.244504028799953	0.244504028799953	0.244504028799953
0.24527072005862	0.24527072005862	0.24527072005862	0.24527072005862	0.24527072005862	0.24527072005862
0.362872334905535	0.362872334905535	0.362872334905535	0.362872334905535	0.362872334905535	0.362872334905535
0.2597250069151	0.2597250069151	0.2597250069151	0.2597250069151	0.2597250069151	0.2597250069151
0.320210437886187	0.320210437886187	0.320210437886187	0.320210437886187	0.320210437886187	0.320210437886187
0.424758320343089	0.424758320343089	0.424758320343089	0.424758320343089	0.424758320343089	0.424758320343089
0.373602431154625	0.373602431154625	0.373602431154625	0.373602431154625	0.373602431154625	0.373602431154625
0.313633617671178	0.313633617671178	0.313633617671178	0.313633617671178	0.313633617671178	0.313633617671178
0.217321036022858	0.217321036022858	0.217321036022858	0.217321036022858	0.217321036022858	0.217321036022858
0.307037924654063	0.307037924654063	0.307037924654063	0.307037924654063	0.307037924654063	0.307037924654063
0.30928249415813	0.30928249415813	0.30928249415813	0.30928249415813	0.30928249415813	0.30928249415813
0.166193604531197	0.166193604531197	0.166193604531197	0.166193604531197	0.166193604531197	0.166193604531197
0.215851461079347	0.215851461079347	0.215851461079347	0.215851461079347	0.215851461079347	0.215851461079347
0.245423814636862	0.245423814636862	0.245423814636862	0.245423814636862	0.245423814636862	0.245423814636862
0.215266625000244	0.215266625000244	0.215266625000244	0.215266625000244	0.215266625000244	0.215266625000244
0.0778056264873659	0.0778056264873659	0.0778056264873659	0.0778056264873659	0.0778056264873659	0.0778056264873659
0.149345968389752	0.149345968389752	0.149345968389752	0.149345968389752	0.149345968389752	0.149345968389752
0.147437483320373	0.147437483320373	0.147437483320373	0.147437483320373	0.147437483320373	0.147437483320373
0.0485528627908404	0.0485528627908404	0.0485528627908404	0.0485528627908404	0.0485528627908404	0.0485528627908404
-0.0368977567866815	-0.0368977567866815	-0.0368977567866815	-0.0368977567866815	-0.0368977567866815	-0.0368977567866815
-0.0258155600263152	-0.0258155600263152	-0.0258155600263152	-0.0258155600263152	-0.0258155600263152	-0.0258155600263152
-0.0309966210087127	-0.0309966210087127	-0.0309966210087127	-0.0309966210087127	-0.0309966210087127	-0.0309966210087127
-0.0476752619212389	-0.0476752619212389	-0.0476752619212389	-0.0476752619212389	-0.0476752619212389	-0.0476752619212389
0.00428904974351421	0.00428904974351421	0.00428904974351421	0.00428904974351421	0.00428904974351421	0.00428904974351421
-0.153672700577256	-0.153672700577256	-0.153672700577256	-0.153672700577256	-0.153672700577256	-0.153672700577256
-0.190121599801613	-0.190121599801613	-0.190121599801613	-0.190121599801613	-0.190121599801613	-0.190121599801613
-0.0882354889038146	-0.0882354889038146	-0.0882354889038146	-0.0882354889038146	-0.0882354889038146	-0.0882354889038146
-0.0347099152765774	-0.0347099152765774	-0.0347099152765774	-0.0347099152765774	-0.0347099152765774	-0.0347099152765774
0.317364930570717	0.317364930570717	0.317364930570717	0.317364930570717	0.317364930570717	0.317364930570717
0.540490267698697	0.540490267698697	0.540490267698697	0.540490267698697	0.540490267698697	0.540490267698697
0.772556330240808	0.772556330240808	0.772556330240808	0.772556330240808	0.772556330240808	0.772556330240808
1.03382893321027	1.03382893321027	1.03382893321027	1.03382893321027	1.03382893321027	1.03382893321027
1.22402789376669	1.22402789376669	1.22402789376669	1.22402789376669	1.22402789376669	1.22402789376669
1.05021822290783	1.05021822290783	1.05021822290783	1.05021822290783	1.05021822290783	1.05021822290783
1.00480731815558	1.00480731815558	1.00480731815558	1.00480731815558	1.00480731815558	1.00480731815558
0.84030643802792	0.84030643802792	0.84030643802792	0.84030643802792	0.84030643802792	0.84030643802792
0.366648136934981	0.366648136934981	0.366648136934981	0.366648136934981	0.366648136934981	0.366648136934981
0.211007233692165	0.211007233692165	0.211007233692165	0.211007233692165	0.211007233692165	0.211007233692165
-0.0208781035586026	-0.0208781035586026	-0.0208781035586026	-0.0208781035586026	-0.0208781035586026	-0.0208781035586026
-0.086388724989388	-0.086388724989388	-0.086388724989388	-0.086388724989388	-0.086388724989388	-0.086388724989388
-0.264884604789002	-0.264884604789002	-0.264884604789002	-0.264884604789002	-0.264884604789002	-0.264884604789002
-0.27215334570856	-0.27215334570856	-0.27215334570856	-0.27215334570856	-0.27215334570856	-0.27215334570856
-0.260816689482518	-0.260816689482518	-0.260816689482518	-0.260816689482518	-0.260816689482518	-0.260816689482518
-0.0654338907753671	-0.0654338907753671	-0.0654338907753671	-0.0654338907753671	-0.0654338907753671	-0.0654338907753671
-0.0575844894349386	-0.0575844894349386	-0.0575844894349386	-0.0575844894349386	-0.0575844894349386	-0.0575844894349386
0.0429556408698424	0.0429556408698424	0.0429556408698424	0.0429556408698424	0.0429556408698424	0.0429556408698424
0.033985954704668	0.033985954704668	0.033985954704668	0.033985954704668	0.033985954704668	0.033985954704668
0.0198977273003064	0.0198977273003064	0.0198977273003064	0.0198977273003064	0.0198977273003064	0.0198977273003064
0.00834347127962802	0.00834347127962802	0.00834347127962802	0.00834347127962802	0.00834347127962802	0.00834347127962802
0.136136948705364	0.136136948705364	0.136136948705364	0.136136948705364	0.136136948705364	0.136136948705364
-0.0225737933832332	-0.0225737933832332	-0.0225737933832332	-0.0225737933832332	-0.0225737933832332	-0.0225737933832332
0.0388564357852735	0.0388564357852735	0.0388564357852735	0.0388564357852735	0.0388564357852735	0.0388564357852735
0.11151927952125	0.11151927952125	0.11151927952125	0.11151927952125	0.11151927952125	0.11151927952125
0.140164410311582	0.140164410311582	0.140164410311582	0.140164410311582	0.140164410311582	0.140164410311582
0.207344829787828	0.207344829787828	0.207344829787828	0.207344829787828	0.207344829787828	0.207344829787828
0.135295315207972	0.135295315207972	0.135295315207972	0.135295315207972	0.135295315207972	0.135295315207972
0.124295392577473	0.124295392577473	0.124295392577473	0.124295392577473	0.124295392577473	0.124295392577473
0.172207156353046	0.172207156353046	0.172207156353046	0.172207156353046	0.172207156353046	0.172207156353046
0.0944392650040256	0.0944392650040256	0.0944392650040256	0.0944392650040256	0.0944392650040256	0.0944392650040256
0.253630090727259	0.253630090727259	0.253630090727259	0.253630090727259	0.253630090727259	0.253630090727259
0.190332874060639	0.190332874060639	0.190332874060639	0.190332874060639	0.190332874060639	0.190332874060639
0.297299297378968	0.297299297378968	0.297299297378968	0.297299297378968	0.297299297378968	0.297299297378968
0.23795594884633	0.23795594884633	0.23795594884633	0.23795594884633	0.23795594884633	0.23795594884633
0.20510442549242	0.20510442549242	0.20510442549242	0.20510442549242	0.20510442549242	0.20510442549242
0.278101741948692	0.278101741948692	0.278101741948692	0.278101741948692	0.278101741948692	0.278101741948692
0.287345546238778	0.287345546238778	0.287345546238778	0.287345546238778	0.287345546238778	0.287345546238778
0.449356680206725	0.449356680206725	0.449356680206725	0.449356680206725	0.449356680206725	0.449356680206725
0.484331134470626	0.484331134470626	0.484331134470626	0.484331134470626	0.484331134470626	0.484331134470626
0.379460729272286	0.379460729272286	0.379460729272286	0.379460729272286	0.379460729272286	0.379460729272286
0.461928538690893	0.461928538690893	0.461928538690893	0.461928538690893	0.461928538690893	0.461928538690893
0.420812475821681	0.420812475821681	0.420812475821681	0.420812475821681	0.420812475821681	0.420812475821681
0.370124080714447	0.370124080714447	0.370124080714447	0.370124080714447	0.370124080714447	0.370124080714447
0.358538873699382	0.358538873699382	0.358538873699382	0.358538873699382	0.358538873699382	0.358538873699382
0.477463360987643	0.477463360987643	0.477463360987643	0.477463360987643	0.477463360987643	0.477463360987643
0.539632058040539	0.539632058040539	0.539632058040539	0.539632058040539	0.539632058040539	0.539632058040539
0.479365316448087	0.479365316448087	0.479365316448087	0.479365316448087	0.479365316448087	0.479365316448087
0.350311533481667	0.350311533481667	0.350311533481667	0.350311533481667	0.350311533481667	0.350311533481667
0.377921922882337	0.377921922882337	0.377921922882337	0.377921922882337	0.377921922882337	0.377921922882337
0.377847986616774	0.377847986616774	0.377847986616774	0.377847986616774	0.377847986616774	0.377847986616774
0.305391374744914	0.305391374744914	0.305391374744914	0.305391374744914	0.305391374744914	0.305391374744914
0.362695364636955	0.362695364636955	0.362695364636955	0.362695364636955	0.362695364636955	0.362695364636955
0.340944131829478	0.340944131829478	0.340944131829478	0.340944131829478	0.340944131829478	0.340944131829478
0.273346570590033	0.273346570590033	0.273346570590033	0.273346570590033	0.273346570590033	0.273346570590033
0.209106996242329	0.209106996242329	0.209106996242329	0.209106996242329	0.209106996242329	0.209106996242329
0.370662100783872	0.370662100783872	0.370662100783872	0.370662100783872	0.370662100783872	0.370662100783872
0.182778284640908	0.182778284640908	0.182778284640908	0.182778284640908	0.182778284640908	0.182778284640908
0.247586308706734	0.247586308706734	0.247586308706734	0.247586308706734	0.247586308706734	0.247586308706734
0.252221857963265	0.252221857963265	0.252221857963265	0.252221857963265	0.252221857963265	0.252221857963265
0.180346263652136	0.180346263652136	0.180346263652136	0.180346263652136	0.180346263652136	0.180346263652136
0.242641019501456	0.242641019501456	0.242641019501456	0.242641019501456	0.242641019501456	0.242641019501456
0.0560480382588872	0.0560480382588872	0.0560480382588872	0.0560480382588872	0.0560480382588872	0.0560480382588872
0.0559697968221247	0.0559697968221247	0.0559697968221247	0.0559697968221247	0.0559697968221247	0.0559697968221247
0.0353423095017998	0.0353423095017998	0.0353423095017998	0.0353423095017998	0.0353423095017998	0.0353423095017998
0.135036412986426	0.135036412986426	0.135036412986426	0.135036412986426	0.135036412986426	0.135036412986426
-0.00233777619469556	-0.00233777619469556	-0.00233777619469556	-0.00233777619469556	-0.00233777619469556	-0.00233777619469556
0.00878264818143708	0.00878264818143708	0.00878264818143708	0.00878264818143708	0.00878264818143708	0.00878264818143708
-0.0452456477197992	-0.0452456477197992	-0.0452456477197992	-0.0452456477197992	-0.0452456477197992	-0.0452456477197992
-0.0446544511032745	-0.0446544511032745	-0.0446544511032745	-0.0446544511032745	-0.0446544511032745	-0.0446544511032745
0.0453293343537607	0.0453293343537607	0.0453293343537607	0.0453293343537607	0.0453293343537607	0.0453293343537607
0.102441540444443	0.102441540444443	0.102441540444443	0.102441540444443	0.102441540444443	0.102441540444443
0.0620121154253578	0.0620121154253578	0.0620121154253578	0.0620121154253578	0.0620121154253578	0.0620121154253578
0.00182931024898475	0.00182931024898475	0.00182931024898475	0.00182931024898475	0.00182931024898475	0.00182931024898475
0.116387789614491	0.116387789614491	0.116387789614491	0.116387789614491	0.116387789614491	0.116387789614491
0.00104950190771125	0.00104950190771125	0.00104950190771125	0.00104950190771125	0.00104950190771125	0.00104950190771125
0.0375574903067207	0.0375574903067207	0.0375574903067207	0.0375574903067207	0.0375574903067207	0.0375574903067207
0.0802154319331433	0.0802154319331433	0.0802154319331433	0.0802154319331433	0.0802154319331433	0.0802154319331433
0.144212476510372	0.144212476510372	0.144212476510372	0.144212476510372	0.144212476510372	0.144212476510372
0.00816344498678039	0.00816344498678039	0.00816344498678039	0.00816344498678039	0.00816344498678039	0.00816344498678039
0.127341742147779	0.127341742147779	0.127341742147779	0.127341742147779	0.127341742147779	0.127341742147779
0.0247811825470712	0.0247811825470712	0.0247811825470712	0.0247811825470712	0.0247811825470712	0.0247811825470712
0.109279824251534	0.109279824251534	0.109279824251534	0.109279824251534	0.109279824251534	0.109279824251534
0.120661385968927	0.120661385968927	0.120661385968927	0.120661385968927	0.120661385968927	0.120661385968927
-0.036503769284682	-0.036503769284682	-0.036503769284682	-0.036503769284682	-0.036503769284682	-0.036503769284682
-0.0208684390485591	-0.0208684390485591	-0.0208684390485591	-0.0208684390485591	-0.0208684390485591	-0.0208684390485591
0.106963823256475	0.106963823256475	0.106963823256475	0.106963823256475	0.106963823256475	0.106963823256475
0.0745481813840031	0.0745481813840031	0.0745481813840031	0.0745481813840031	0.0745481813840031	0.0745481813840031
0.0602708856072785	0.0602708856072785	0.0602708856072785	0.0602708856072785	0.0602708856072785	0.0602708856072785
0.0979965573125403	0.0979965573125403	0.0979965573125403	0.0979965573125403	0.0979965573125403	0.0979965573125403
0.125251351576114	0.125251351576114	0.125251351576114	0.125251351576114	0.125251351576114	0.125251351576114
0.234756579940149	0.234756579940149	0.234756579940149	0.234756579940149	0.234756579940149	0.234756579940149
0.243304149049586	0.243304149049586	0.243304149049586	0.243304149049586	0.243304149049586	0.243304149049586
0.221396110486454	0.221396110486454	0.221396110486454	0.221396110486454	0.221396110486454	0.221396110486454
0.136826560794801	0.136826560794801	0.136826560794801	0.136826560794801	0.136826560794801	0.136826560794801
0.194490201900928	0.194490201900928	0.194490201900928	0.194490201900928	0.194490201900928	0.194490201900928
0.292023893502289	0.292023893502289	0.292023893502289	0.292023893502289	0.292023893502289	0.292023893502289
0.241117266047215	0.241117266047215	0.241117266047215	0.241117266047215	0.241117266047215	0.241117266047215
0.342782195115643	0.342782195115643	0.342782195115643	0.342782195115643	0.342782195115643	0.342782195115643
0.401096185658539	0.401096185658539	0.401096185658539	0.401096185658539	0.401096185658539	0.401096185658539
0.222387044151094	0.222387044151094	0.222387044151094	0.222387044151094	0.222387044151094	0.222387044151094
0.239533152646348	0.239533152646348	0.239533152646348	0.239533152646348	0.239533152646348	0.239533152646348
0.372795764912799	0.372795764912799	0.372795764912799	0.372795764912799	0.372795764912799	0.372795764912799
0.29911472453026	0.29911472453026	0.29911472453026	0.29911472453026	0.29911472453026	0.29911472453026
0.17503107598342	0.17503107598342	0.17503107598342	0.17503107598342	0.17503107598342	0.17503107598342
0.319932535127373	0.319932535127373	0.319932535127373	0.319932535127373	0.319932535127373	0.319932535127373
0.253018752647445	0.253018752647445	0.253018752647445	0.253018752647445	0.253018752647445	0.253018752647445
0.191315625948664	0.191315625948664	0.191315625948664	0.191315625948664	0.191315625948664	0.191315625948664
0.226226327866039	0.226226327866039	0.226226327866039	0.226226327866039	0.226226327866039	0.226226327866039
0.189946310246217	0.189946310246217	0.189946310246217	0.189946310246217	0.189946310246217	0.189946310246217
0.185557469508462	0.185557469508462	0.185557469508462	0.185557469508462	0.185557469508462	0.185557469508462
0.198307592166741	0.198307592166741	0.198307592166741	0.198307592166741	0.198307592166741	0.198307592166741
0.0500913942101159	0.0500913942101159	0.0500913942101159	0.0500913942101159	0.0500913942101159	0.0500913942101159
0.162859512871191	0.162859512871191	0.162859512871191	0.162859512871191	0.162859512871191	0.162859512871191
-0.0238046833294865	-0.0238046833294865	-0.0238046833294865	-0.0238046833294865	-0.0238046833294865	-0.0238046833294865
0.127769778776307	0.127769778776307	0.127769778776307	0.127769778776307	0.127769778776307	0.127769778776307
0.00386306513929001	0.00386306513929001	0.00386306513929001	0.00386306513929001	0.00386306513929001	0.00386306513929001
-0.0845959733914979	-0.0845959733914979	-0.0845959733914979	-0.0845959733914979	-0.0845959733914979	-0.0845959733914979
0.0250113807980561	0.0250113807980561	0.0250113807980561	0.0250113807980561	0.0250113807980561	0.0250113807980561
-0.0720071961612185	-0.0720071961612185	-0.0720071961612185	-0.0720071961612185	-0.0720071961612185	-0.0720071961612185
-0.0476955582209966	-0.0476955582209966	-0.0476955582209966	-0.0476955582209966	-0.0476955582209966	-0.0476955582209966
-0.235786306645845	-0.235786306645845	-0.235786306645845	-0.235786306645845	-0.235786306645845	-0.235786306645845
-0.0821474088404526	-0.0821474088404526	-0.0821474088404526	-0.0821474088404526	-0.0821474088404526	-0.0821474088404526
-0.113321861705266	-0.113321861705266	-0.113321861705266	-0.113321861705266	-0.113321861705266	-0.113321861705266
0.0538759191547293	0.0538759191547293	0.0538759191547293	0.0538759191547293	0.0538759191547293	0.0538759191547293
0.231756829752774	0.231756829752774	0.231756829752774	0.231756829752774	0.231756829752774	0.231756829752774
0.475550457010475	0.475550457010475	0.475550457010475	0.475550457010475	0.475550457010475	0.475550457010475
0.787277526942562	0.787277526942562	0.787277526942562	0.787277526942562	0.787277526942562	0.787277526942562
1.06670743524371	1.06670743524371	1.06670743524371	1.06670743524371	1.06670743524371	1.06670743524371
1.07590588875344	1.07590588875344	1.07590588875344	1.07590588875344	1.07590588875344	1.07590588875344
1.0246782143197	1.0246782143197	1.0246782143197	1.0246782143197	1.0246782143197	1.0246782143197
0.912716319029093	0.912716319029093	0.912716319029093	0.912716319029093	0.912716319029093	0.912716319029093
0.603301062885678	0.603301062885678	0.603301062885678	0.603301062885678	0.603301062885678	0.603301062885678
0.31649559720736	0.31649559720736	0.31649559720736	0.31649559720736	0.31649559720736	0.31649559720736
0.0822957205444543	0.0822957205444543	0.0822957205444543	0.0822957205444543	0.0822957205444543	0.0822957205444543
-0.022537498176395	-0.022537498176395	-0.022537498176395	-0.022537498176395	-0.022537498176395	-0.022537498176395
-0.264900839321421	-0.264900839321421	-0.264900839321421	-0.264900839321421	-0.264900839321421	-0.264900839321421
-0.171693015667629	-0.171693015667629	-0.171693015667629	-0.171693015667629	-0.171693015667629	-0.171693015667629
-0.175104348709567	-0.175104348709567	-0.175104348709567	-0.175104348709567	-0.175104348709567	-0.175104348709567
-0.282022386041986	-0.282022386041986	-0.282022386041986	-0.282022386041986	-0.282022386041986	-0.282022386041986
-0.232760455401643	-0.232760455401643	-0.232760455401643	-0.232760455401643	-0.232760455401643	-0.232760455401643
-0.165617452829276	-0.165617452829276	-0.165617452829276	-0.165617452829276	-0.165617452829276	-0.165617452829276
0.0478805208120208	0.0478805208120208	0.0478805208120208	0.0478805208120208	0.0478805208120208	0.0478805208120208
-0.0867435195750632	-0.0867435195750632	-0.0867435195750632	-0.0867435195750632	-0.0867435195750632	-0.0867435195750632
0.0542514283668917	0.0542514283668917	0.0542514283668917	0.0542514283668917	0.0542514283668917	0.0542514283668917
-0.0309158209272155	-0.0309158209272155	-0.0309158209272155	-0.0309158209272155	-0.0309158209272155	-0.0309158209272155
0.0818313444775205	0.0818313444775205	0.0818313444775205	0.0818313444775205	0.0818313444775205	0.0818313444775205
0.0135917424698663	0.0135917424698663	0.0135917424698663	0.0135917424698663	0.0135917424698663	0.0135917424698663
-0.0059114611637827	-0.0059114611637827	-0.0059114611637827	-0.0059114611637827	-0.0059114611637827	-0.0059114611637827
0.0730774606286042	0.0730774606286042	0.0730774606286042	0.0730774606286042	0.0730774606286042	0.0730774606286042
-0.00155399514450379	-0.00155399514450379	-0.00155399514450379	-0.00155399514450379	-0.00155399514450379	-0.00155399514450379
0.174570387494282	0.174570387494282	0.174570387494282	0.174570387494282	0.174570387494282	0.174570387494282
0.0941900016388725	0.0941900016388725	0.0941900016388725	0.0941900016388725	0.0941900016388725	0.0941900016388725
0.0204926642773702	0.0204926642773702	0.0204926642773702	0.0204926642773702	0.0204926642773702	0.0204926642773702
0.170757238169618	0.170757238169618	0.170757238169618	0.170757238169618	0.170757238169618	0.170757238169618
0.117747153218112	0.117747153218112	0.117747153218112	0.117747153218112	0.117747153218112	0.117747153218112
0.0812485785348456	0.0812485785348456	0.0812485785348456	0.0812485785348456	0.0812485785348456	0.0812485785348456
0.12980941905681	0.12980941905681	0.12980941905681	0.12980941905681	0.12980941905681	0.12980941905681
0.144134041952601	0.144134041952601	0.144134041952601	0.144134041952601	0.144134041952601	0.144134041952601
0.345195959753602	0.345195959753602	0.345195959753602	0.345195959753602	0.345195959753602	0.345195959753602
0.201504209682594	0.201504209682594	0.201504209682594	0.201504209682594	0.201504209682594	0.201504209682594
0.346636068550908	0.346636068550908	0.346636068550908	0.346636068550908	0.346636068550908	0.346636068550908
0.32934552876899	0.32934552876899	0.32934552876899	0.32934552876899	0.32934552876899	0.32934552876899
0.279097566503738	0.279097566503738	0.279097566503738	0.279097566503738	0.279097566503738	0.279097566503738
0.404084080163161	0.404084080163161	0.404084080163161	0.404084080163161	0.404084080163161	0.404084080163161
0.359346480107316	0.359346480107316	0.359346480107316	0.359346480107316	0.359346480107316	0.359346480107316
0.472197842639868	0.472197842639868	0.472197842639868	0.472197842639868	0.472197842639868	0.472197842639868
0.308056246801411	0.308056246801411	0.308056246801411	0.308056246801411	0.308056246801411	0.308056246801411
0.41508341349735	0.41508341349735	0.41508341349735	0.41508341349735	0.41508341349735	0.41508341349735
0.49502367922452	0.49502367922452	0.49502367922452	0.49502367922452	0.49502367922452	0.49502367922452
0.429117457876899	0.429117457876899	0.429117457876899	0.429117457876899	0.429117457876899	0.429117457876899
0.384888197103166	0.384888197103166	0.384888197103166	0.384888197103166	0.384888197103166	0.384888197103166
0.366235836733551	0.366235836733551	0.366235836733551	0.366235836733551	0.366235836733551	0.366235836733551
0.457449286583463	0.457449286583463	0.457449286583463	0.457449286583463	0.457449286583463	0.457449286583463
0.400893180221286	0.400893180221286	0.400893180221286	0.400893180221286	0.400893180221286	0.400893180221286
0.396881794355971	0.396881794355971	0.396881794355971	0.396881794355971	0.396881794355971	0.396881794355971
0.262220253143125	0.262220253143125	0.262220253143125	0.262220253143125	0.262220253143125	0.262220253143125
0.337763872974095	0.337763872974095	0.337763872974095	0.337763872974095	0.337763872974095	0.337763872974095
0.408105085174824	0.408105085174824	0.408105085174824	0.408105085174824	0.408105085174824	0.408105085174824
0.230590826546191	0.230590826546191	0.230590826546191	0.230590826546191	0.230590826546191	0.230590826546191
0.289768100759997	0.289768100759997	0.289768100759997	0.289768100759997	0.289768100759997	0.289768100759997
0.176358862632034	0.176358862632034	0.176358862632034	0.176358862632034	0.176358862632034	0.176358862632034
0.179524713971125	0.179524713971125	0.179524713971125	0.179524713971125	0.179524713971125	0.179524713971125
0.202354892801799	0.202354892801799	0.202354892801799	0.202354892801799	0.202354892801799	0.202354892801799
0.159747569942393	0.159747569942393	0.159747569942393	0.159747569942393	0.159747569942393	0.159747569942393
0.0925210020892321	0.0925210020892321	0.0925210020892321	0.0925210020892321	0.0925210020892321	0.0925210020892321
0.173677708616073	0.173677708616073	0.173677708616073	0.173677708616073	0.173677708616073	0.173677708616073
0.0261565675118204	0.0261565675118204	0.0261565675118204	0.0261565675118204	0.0261565675118204	0.0261565675118204
0.14959362023245	0.14959362023245	0.14959362023245	0.14959362023245	0.14959362023245	0.14959362023245
-0.0487559494857839	-0.0487559494857839	-0.0487559494857839	-0.0487559494857839	-0.0487559494857839	-0.0487559494857839
-0.0384154841877193	-0.0384154841877193	-0.0384154841877193	-0.0384154841877193	-0.0384154841877193	-0.0384154841877193
0.0416824203759971	0.0416824203759971	0.0416824203759971	0.0416824203759971	0.0416824203759971	0.0416824203759971
-0.0088660792622048	-0.0088660792622048	-0.0088660792622048	-0.0088660792622048	-0.0088660792622048	-0.0088660792622048
-0.0196389144139637	-0.0196389144139637	-0.0196389144139637	-0.0196389144139637	-0.0196389144139637	-0.0196389144139637
0.0821131718501161	0.0821131718501161	0.0821131718501161	0.0821131718501161	0.0821131718501161	0.0821131718501161
0.0237920802194069	0.0237920802194069	0.0237920802194069	0.0237920802194069	0.0237920802194069	0.0237920802194069
-0.0121847646943003	-0.0121847646943003	-0.0121847646943003	-0.0121847646943003	-0.0121847646943003	-0.0121847646943003
0.0916780736911052	0.0916780736911052	0.0916780736911052	0.0916780736911052	0.0916780736911052	0.0916780736911052
-0.0469391464476992	-0.0469391464476992	-0.0469391464476992	-0.0469391464476992	-0.0469391464476992	-0.0469391464476992
0.0307244673717488	0.0307244673717488	0.0307244673717488	0.0307244673717488	0.0307244673717488	0.0307244673717488
-0.0319350491005907	-0.0319350491005907	-0.0319350491005907	-0.0319350491005907	-0.0319350491005907	-0.0319350491005907
-0.0779365611893676	-0.0779365611893676	-0.0779365611893676	-0.0779365611893676	-0.0779365611893676	-0.0779365611893676
-0.0751614298586207	-0.0751614298586207	-0.0751614298586207	-0.0751614298586207	-0.0751614298586207	-0.0751614298586207
0.0926419741957552	0.0926419741957552	0.0926419741957552	0.0926419741957552	0.0926419741957552	0.0926419741957552
0.0166817552506966	0.0166817552506966	0.0166817552506966	0.0166817552506966	0.0166817552506966	0.0166817552506966
-0.0670949353369352	-0.0670949353369352	-0.0670949353369352	-0.0670949353369352	-0.0670949353369352	-0.0670949353369352
-0.00798491325358587	-0.00798491325358587	-0.00798491325358587	-0.00798491325358587	-0.00798491325358587	-0.00798491325358587
0.0649394522371367	0.0649394522371367	0.0649394522371367	0.0649394522371367	0.0649394522371367	0.0649394522371367
-0.0302344439318924	-0.0302344439318924	-0.0302344439318924	-0.0302344439318924	-0.0302344439318924	-0.0302344439318924
0.0582200508485236	0.0582200508485236	0.0582200508485236	0.0582200508485236	0.0582200508485236	0.0582200508485236
0.0737022814239099	0.0737022814239099	0.0737022814239099	0.0737022814239099	0.0737022814239099	0.0737022814239099
0.055244720178101	0.055244720178101	0.055244720178101	0.055244720178101	0.055244720178101	0.055244720178101
0.103119719561185	0.103119719561185	0.103119719561185	0.103119719561185	0.103119719561185	0.103119719561185
0.0844293890352933	0.0844293890352933	0.0844293890352933	0.0844293890352933	0.0844293890352933	0.0844293890352933
0.0867012546314227	0.0867012546314227	0.0867012546314227	0.0867012546314227	0.0867012546314227	0.0867012546314227
0.0770539249528701	0.0770539249528701	0.0770539249528701	0.0770539249528701	0.0770539249528701	0.0770539249528701
0.204033423198248	0.204033423198248	0.204033423198248	0.204033423198248	0.204033423198248	0.204033423198248
0.103388184408508	0.103388184408508	0.103388184408508	0.103388184408508	0.103388184408508	0.103388184408508
0.195991538425732	0.195991538425732	0.195991538425732	0.195991538425732	0.195991538425732	0.195991538425732
0.115784259553915	0.115784259553915	0.115784259553915	0.115784259553915	0.115784259553915	0.115784259553915
0.212836381457448	0.212836381457448	0.212836381457448	0.212836381457448	0.212836381457448	0.212836381457448
0.173978327798268	0.173978327798268	0.173978327798268	0.173978327798268	0.173978327798268	0.173978327798268
0.215443456640062	0.215443456640062	0.215443456640062	0.215443456640062	0.215443456640062	0.215443456640062
0.339428227439196	0.339428227439196	0.339428227439196	0.339428227439196	0.339428227439196	0.339428227439196
0.266389821144037	0.266389821144037	0.266389821144037	0.266389821144037	0.266389821144037	0.266389821144037
0.171153717794951	0.171153717794951	0.171153717794951	0.171153717794951	0.171153717794951	0.171153717794951
0.284277629272047	0.284277629272047	0.284277629272047	0.284277629272047	0.284277629272047	0.284277629272047
0.251606215176145	0.251606215176145	0.251606215176145	0.251606215176145	0.251606215176145	0.251606215176145
0.274766448411948	0.274766448411948	0.274766448411948	0.274766448411948	0.274766448411948	0.274766448411948
0.255312584649547	0.255312584649547	0.255312584649547	0.255312584649547	0.255312584649547	0.255312584649547
0.234607877752763	0.234607877752763	0.234607877752763	0.234607877752763	0.234607877752763	0.234607877752763
0.10757622429668	0.10757622429668	0.10757622429668	0.10757622429668	0.10757622429668	0.10757622429668
0.126436164385656	0.126436164385656	0.126436164385656	0.126436164385656	0.126436164385656	0.126436164385656
0.057330668800426	0.057330668800426	0.057330668800426	0.057330668800426	0.057330668800426	0.057330668800426
0.0149873404679352	0.0149873404679352	0.0149873404679352	0.0149873404679352	0.0149873404679352	0.0149873404679352
0.146747335930866	0.146747335930866	0.146747335930866	0.146747335930866	0.146747335930866	0.146747335930866
0.0220643241553624	0.0220643241553624	0.0220643241553624	0.0220643241553624	0.0220643241553624	0.0220643241553624
0.0995136610780197	0.0995136610780197	0.0995136610780197	0.0995136610780197	0.0995136610780197	0.0995136610780197
-0.000724315819128876	-0.000724315819128876	-0.000724315819128876	-0.000724315819128876	-0.000724315819128876	-0.000724315819128876
-0.0792155101250158	-0.0792155101250158	-0.0792155101250158	-0.0792155101250158	-0.0792155101250158	-0.0792155101250158
-0.00335967193270034	-0.00335967193270034	-0.00335967193270034	-0.00335967193270034	-0.00335967193270034	-0.00335967193270034
0.0526985051079294	0.0526985051079294	0.0526985051079294	0.0526985051079294	0.0526985051079294	0.0526985051079294
-0.123282754116871	-0.123282754116871	-0.123282754116871	-0.123282754116871	-0.123282754116871	-0.123282754116871
-0.057002067338453	-0.057002067338453	-0.057002067338453	-0.057002067338453	-0.057002067338453	-0.057002067338453
-0.076640111926952	-0.076640111926952	-0.076640111926952	-0.076640111926952	-0.076640111926952	-0.076640111926952
-0.261478168937807	-0.261478168937807	-0.261478168937807	-0.261478168937807	-0.261478168937807	-0.261478168937807
-0.206340554818546	-0.206340554818546	-0.206340554818546	-0.206340554818546	-0.206340554818546	-0.206340554818546
-0.11005303116556	-0.11005303116556	-0.11005303116556	-0.11005303116556	-0.11005303116556	-0.11005303116556
-0.174582681840986	-0.174582681840986	-0.174582681840986	-0.174582681840986	-0.174582681840986	-0.174582681840986
0.0536694659439721	0.0536694659439721	0.0536694659439721	0.0536694659439721	0.0536694659439721	0.0536694659439721
0.249745462545988	0.249745462545988	0.249745462545988	0.249745462545988	0.249745462545988	0.249745462545988
0.504504438608844	0.504504438608844	0.504504438608844	0.504504438608844	0.504504438608844	0.504504438608844
0.911938011150144	0.911938011150144	0.911938011150144	0.911938011150144	0.911938011150144	0.911938011150144
0.933393281992875	0.933393281992875	0.933393281992875	0.933393281992875	0.933393281992875	0.933393281992875
1.12228595695686	1.12228595695686	1.12228595695686	1.12228595695686	1.12228595695686	1.12228595695686
1.07047639568402	1.07047639568402	1.07047639568402	1.07047639568402	1.07047639568402	1.07047639568402
0.708793818317382	0.708793818317382	0.708793818317382	0.708793818317382	0.708793818317382	0.708793818317382
0.516265991165323	0.516265991165323	0.516265991165323	0.516265991165323	0.516265991165323	0.516265991165323
0.12502339527345	0.12502339527345	0.12502339527345	0.12502339527345	0.12502339527345	0.12502339527345
-0.0238148413206006	-0.0238148413206006	-0.0238148413206006	-0.0238148413206006	-0.0238148413206006	-0.0238148413206006
-0.162184003155802	-0.162184003155802	-0.162184003155802	-0.162184003155802	-0.162184003155802	-0.162184003155802
-0.216934905318738	-0.216934905318738	-0.216934905318738	-0.216934905318738	-0.216934905318738	-0.216934905318738
-0.295545722492778	-0.295545722492778	-0.295545722492778	-0.295545722492778	-0.295545722492778	-0.295545722492778
-0.206775532465155	-0.206775532465155	-0.206775532465155	-0.206775532465155	-0.206775532465155	-0.206775532465155
-0.310193724958236	-0.310193724958236	-0.310193724958236	-0.310193724958236	-0.310193724958236	-0.310193724958236
-0.22408300840306	-0.22408300840306	-0.22408300840306	-0.22408300840306	-0.22408300840306	-0.22408300840306
-0.210810156859839	-0.210810156859839	-0.210810156859839	-0.210810156859839	-0.210810156859839	-0.210810156859839
-0.0141118585911937	-0.0141118585911937	-0.0141118585911937	-0.0141118585911937	-0.0141118585911937	-0.0141118585911937
-0.0190833976039013	-0.0190833976039013	-0.0190833976039013	-0.0190833976039013	-0.0190833976039013	-0.0190833976039013
0.0639429743079883	0.0639429743079883	0.0639429743079883	0.0639429743079883	0.0639429743079883	0.0639429743079883
-0.0686320494628674	-0.0686320494628674	-0.0686320494628674	-0.0686320494628674	-0.0686320494628674	-0.0686320494628674
0.0609796078987005	0.0609796078987005	0.0609796078987005	0.0609796078987005	0.0609796078987005	0.0609796078987005
-0.0301678851681968	-0.0301678851681968	-0.0301678851681968	-0.0301678851681968	-0.0301678851681968	-0.0301678851681968
-0.00104786229140645	-0.00104786229140645	-0.00104786229140645	-0.00104786229140645	-0.00104786229140645	-0.00104786229140645
0.0172545870941726	0.0172545870941726	0.0172545870941726	0.0172545870941726	0.0172545870941726	0.0172545870941726
-0.0424291337002476	-0.0424291337002476	-0.0424291337002476	-0.0424291337002476	-0.0424291337002476	-0.0424291337002476
0.0190880931100632	0.0190880931100632	0.0190880931100632	0.0190880931100632	0.0190880931100632	0.0190880931100632
0.0634906940851866	0.0634906940851866	0.0634906940851866	0.0634906940851866	0.0634906940851866	0.0634906940851866
0.126101189965769	0.126101189965769	0.126101189965769	0.126101189965769	0.126101189965769	0.126101189965769
0.0925355139977898	0.0925355139977898	0.0925355139977898	0.0925355139977898	0.0925355139977898	0.0925355139977898
0.154561883014631	0.154561883014631	0.154561883014631	0.154561883014631	0.154561883014631	0.154561883014631
0.0711884208227628	0.0711884208227628	0.0711884208227628	0.0711884208227628	0.0711884208227628	0.0711884208227628
0.0701678368665433	0.0701678368665433	0.0701678368665433	0.0701678368665433	0.0701678368665433	0.0701678368665433
0.26778389815914	0.26778389815914	0.26778389815914	0.26778389815914	0.26778389815914	0.26778389815914
0.182672884257018	0.182672884257018	0.182672884257018	0.182672884257018	0.182672884257018	0.182672884257018
0.321359196926631	0.321359196926631	0.321359196926631	0.321359196926631	0.321359196926631	0.321359196926631
0.165148277896324	0.165148277896324	0.165148277896324	0.165148277896324	0.165148277896324	0.165148277896324
0.276982767657797	0.276982767657797	0.276982767657797	0.276982767657797	0.276982767657797	0.276982767657797
0.319297748185126	0.319297748185126	0.319297748185126	0.319297748185126	0.319297748185126	0.319297748185126
0.337516329955875	0.337516329955875	0.337516329955875	0.337516329955875	0.337516329955875	0.337516329955875
0.247064834814632	0.247064834814632	0.247064834814632	0.247064834814632	0.247064834814632	0.247064834814632
0.336014704174771	0.336014704174771	0.336014704174771	0.336014704174771	0.336014704174771	0.336014704174771
0.365578788033879	0.365578788033879	0.365578788033879	0.365578788033879	0.365578788033879	0.365578788033879
0.309731813587724	0.309731813587724	0.309731813587724	0.309731813587724	0.309731813587724	0.309731813587724
0.455631592138981	0.455631592138981	0.455631592138981	0.455631592138981	0.455631592138981	0.455631592138981
0.44806414979078	0.44806414979078	0.44806414979078	0.44806414979078	0.44806414979078	0.44806414979078
0.282071811834039	0.282071811834039	0.282071811834039	0.282071811834039	0.282071811834039	0.282071811834039
0.454881722473577	0.454881722473577	0.454881722473577	0.454881722473577	0.454881722473577	0.454881722473577
0.332949672069785	0.332949672069785	0.332949672069785	0.332949672069785	0.332949672069785	0.332949672069785
0.349328759056365	0.349328759056365	0.349328759056365	0.349328759056365	0.349328759056365	0.349328759056365
0.294204172246263	0.294204172246263	0.294204172246263	0.294204172246263	0.294204172246263	0.294204172246263
0.270720374508341	0.270720374508341	0.270720374508341	0.270720374508341	0.270720374508341	0.270720374508341
0.27042814428443	0.27042814428443	0.27042814428443	0.27042814428443	0.27042814428443	0.27042814428443
0.25016534858681	0.25016534858681	0.25016534858681	0.25016534858681	0.25016534858681	0.25016534858681
0.290369859605828	0.290369859605828	0.290369859605828	0.290369859605828	0.290369859605828	0.290369859605828
0.167188351964182	0.167188351964182	0.167188351964182	0.167188351964182	0.167188351964182	0.167188351964182
0.237998696949575	0.237998696949575	0.237998696949575	0.237998696949575	0.237998696949575	0.237998696949575
0.0874375720931501	0.0874375720931501	0.0874375720931501	0.0874375720931501	0.0874375720931501	0.0874375720931501
0.169338226603253	0.169338226603253	0.169338226603253	0.169338226603253	0.169338226603253	0.169338226603253
0.160928817197346	0.160928817197346	0.160928817197346	0.160928817197346	0.160928817197346	0.160928817197346
-0.00340148170600763	-0.00340148170600763	-0.00340148170600763	-0.00340148170600763	-0.00340148170600763	-0.00340148170600763
0.116929368195827	0.116929368195827	0.116929368195827	0.116929368195827	0.116929368195827	0.116929368195827
0.00633496303031019	0.00633496303031019	0.00633496303031019	0.00633496303031019	0.00633496303031019	0.00633496303031019
-0.0498572715414999	-0.0498572715414999	-0.0498572715414999	-0.0498572715414999	-0.0498572715414999	-0.0498572715414999
0.0140836512348578	0.0140836512348578	0.0140836512348578	0.0140836512348578	0.0140836512348578	0.0140836512348578
0.0421593283054958	0.0421593283054958	0.0421593283054958	0.0421593283054958	0.0421593283054958	0.0421593283054958
-0.129169928506794	-0.129169928506794	-0.129169928506794	-0.129169928506794	-0.129169928506794	-0.129169928506794
0.0517628400009177	0.0517628400009177	0.0517628400009177	0.0517628400009177	0.0517628400009177	0.0517628400009177
0.0650717604187045	0.0650717604187045	0.0650717604187045	0.0650717604187045	0.0650717604187045	0.0650717604187045
0.0252577002412654	0.0252577002412654	0.0252577002412654	0.0252577002412654	0.0252577002412654	0.0252577002412654
-0.119010521177169	-0.119010521177169	-0.119010521177169	-0.119010521177169	-0.119010521177169	-0.119010521177169
0.0140328954382658	0.0140328954382658	0.0140328954382658	0.0140328954382658	0.0140328954382658	0.0140328954382658
-0.057977380715447	-0.057977380715447	-0.057977380715447	-0.057977380715447	-0.057977380715447	-0.057977380715447
-0.0476148508346596	-0.0476148508346596	-0.0476148508346596	-0.0476148508346596	-0.0476148508346596	-0.0476148508346596
-0.130999175168987	-0.130999175168987	-0.130999175168987	-0.130999175168987	-0.130999175168987	-0.130999175168987
-0.0600101873866504	-0.0600101873866504	-0.0600101873866504	-0.0600101873866504	-0.0600101873866504	-0.0600101873866504
-0.077703410490911	-0.077703410490911	-0.077703410490911	-0.077703410490911	-0.077703410490911	-0.077703410490911
-0.0143986138477935	-0.0143986138477935	-0.0143986138477935	-0.0143986138477935	-0.0143986138477935	-0.0143986138477935
0.0281804021524703	0.0281804021524703	0.0281804021524703	0.0281804021524703	0.0281804021524703	0.0281804021524703
-0.0450168021367735	-0.0450168021367735	-0.0450168021367735	-0.0450168021367735	-0.0450168021367735	-0.0450168021367735
-0.0192395308262686	-0.0192395308262686	-0.0192395308262686	-0.0192395308262686	-0.0192395308262686	-0.0192395308262686
-0.0605435632569917	-0.0605435632569917	-0.0605435632569917	-0.0605435632569917	-0.0605435632569917	-0.0605435632569917
0.0549644045425955	0.0549644045425955	0.0549644045425955	0.0549644045425955	0.0549644045425955	0.0549644045425955
-0.0525822523702339	-0.0525822523702339	-0.0525822523702339	-0.0525822523702339	-0.0525822523702339	-0.0525822523702339
0.025702502530449	0.025702502530449	0.025702502530449	0.025702502530449	0.025702502530449	0.025702502530449
-0.0503209038391502	-0.0503209038391502	-0.0503209038391502	-0.0503209038391502	-0.0503209038391502	-0.0503209038391502
-0.043677359983396	-0.043677359983396	-0.043677359983396	-0.043677359983396	-0.043677359983396	-0.043677359983396
-0.0651796849297654	-0.0651796849297654	-0.0651796849297654	-0.0651796849297654	-0.0651796849297654	-0.0651796849297654
-0.0537230387365808	-0.0537230387365808	-0.0537230387365808	-0.0537230387365808	-0.0537230387365808	-0.0537230387365808
0.092659629405856	0.092659629405856	0.092659629405856	0.092659629405856	0.092659629405856	0.092659629405856
0.0146621357684552	0.0146621357684552	0.0146621357684552	0.0146621357684552	0.0146621357684552	0.0146621357684552
-0.000211494484316677	-0.000211494484316677	-0.000211494484316677	-0.000211494484316677	-0.000211494484316677	-0.000211494484316677
0.174086438765501	0.174086438765501	0.174086438765501	0.174086438765501	0.174086438765501	0.174086438765501
0.0463871740148128	0.0463871740148128	0.0463871740148128	0.0463871740148128	0.0463871740148128	0.0463871740148128
0.155795684844783	0.155795684844783	0.155795684844783	0.155795684844783	0.155795684844783	0.155795684844783
0.1655778515183	0.1655778515183	0.1655778515183	0.1655778515183	0.1655778515183	0.1655778515183
0.228160963004456	0.228160963004456	0.228160963004456	0.228160963004456	0.228160963004456	0.228160963004456
0.1675138807223	0.1675138807223	0.1675138807223	0.1675138807223	0.1675138807223	0.1675138807223
0.258260884858557	0.258260884858557	0.258260884858557	0.258260884858557	0.258260884858557	0.258260884858557
0.247377917174639	0.247377917174639	0.247377917174639	0.247377917174639	0.247377917174639	0.247377917174639
0.322232105291867	0.322232105291867	0.322232105291867	0.322232105291867	0.322232105291867	0.322232105291867
0.16852018379687	0.16852018379687	0.16852018379687	0.16852018379687	0.16852018379687	0.16852018379687
0.124128517305444	0.124128517305444	0.124128517305444	0.124128517305444	0.124128517305444	0.124128517305444
0.19992900698945	0.19992900698945	0.19992900698945	0.19992900698945	0.19992900698945	0.19992900698945
0.14498680559864	0.14498680559864	0.14498680559864	0.14498680559864	0.14498680559864	0.14498680559864
0.230041480259568	0.230041480259568	0.230041480259568	0.230041480259568	0.230041480259568	0.230041480259568
0.140803346363705	0.140803346363705	0.140803346363705	0.140803346363705	0.140803346363705	0.140803346363705
0.14992196080633	0.14992196080633	0.14992196080633	0.14992196080633	0.14992196080633	0.14992196080633
0.0754947466442185	0.0754947466442185	0.0754947466442185	0.0754947466442185	0.0754947466442185	0.0754947466442185
0.00193280515594695	0.00193280515594695	0.00193280515594695	0.00193280515594695	0.00193280515594695	0.00193280515594695
-0.0140424182731019	-0.0140424182731019	-0.0140424182731019	-0.0140424182731019	-0.0140424182731019	-0.0140424182731019
-0.0568337259370303	-0.0568337259370303	-0.0568337259370303	-0.0568337259370303	-0.0568337259370303	-0.0568337259370303
-0.0304751978814529	-0.0304751978814529	-0.0304751978814529	-0.0304751978814529	-0.0304751978814529	-0.0304751978814529
-0.110083188968279	-0.110083188968279	-0.110083188968279	-0.110083188968279	-0.110083188968279	-0.110083188968279
-0.0149180311148593	-0.0149180311148593	-0.0149180311148593	-0.0149180311148593	-0.0149180311148593	-0.0149180311148593
0.0481265896346238	0.0481265896346238	0.0481265896346238	0.0481265896346238	0.0481265896346238	0.0481265896346238
-0.15898025246816	-0.15898025246816	-0.15898025246816	-0.15898025246816	-0.15898025246816	-0.15898025246816
-0.0770291915845313	-0.0770291915845313	-0.0770291915845313	-0.0770291915845313	-0.0770291915845313	-0.0770291915845313
-0.0498542402188395	-0.0498542402188395	-0.0498542402188395	-0.0498542402188395	-0.0498542402188395	-0.0498542402188395
-0.135960957268928	-0.135960957268928	-0.135960957268928	-0.135960957268928	-0.135960957268928	-0.135960957268928
-0.283180592297854	-0.283180592297854	-0.283180592297854	-0.283180592297854	-0.283180592297854	-0.283180592297854
-0.18432587133221	-0.18432587133221	-0.18432587133221	-0.18432587133221	-0.18432587133221	-0.18432587133221
-0.170538063406635	-0.170538063406635	-0.170538063406635	-0.170538063406635	-0.170538063406635	-0.170538063406635
-0.0138286136574735	-0.0138286136574735	-0.0138286136574735	-0.0138286136574735	-0.0138286136574735	-0.0138286136574735
0.12207808970062	0.12207808970062	0.12207808970062	0.12207808970062	0.12207808970062	0.12207808970062
0.277696137794322	0.277696137794322	0.277696137794322	0.277696137794322	0.277696137794322	0.277696137794322
0.710098606975456	0.710098606975456	0.710098606975456	0.710098606975456	0.710098606975456	0.710098606975456
0.915902513796772	0.915902513796772	0.915902513796772	0.915902513796772	0.915902513796772	0.915902513796772
0.962834698779113	0.962834698779113	0.962834698779113	0.962834698779113	0.962834698779113	0.962834698779113
1.01208982912355	1.01208982912355	1.01208982912355	1.01208982912355	1.01208982912355	1.01208982912355
0.844846838218429	0.844846838218429	0.844846838218429	0.844846838218429	0.844846838218429	0.844846838218429
0.598849880886024	0.598849880886024	0.598849880886024	0.598849880886024	0.598849880886024	0.598849880886024
0.376153868998012	0.376153868998012	0.376153868998012	0.376153868998012	0.376153868998012	0.376153868998012
0.10225430948578	0.10225430948578	0.10225430948578	0.10225430948578	0.10225430948578	0.10225430948578
-0.175654804745696	-0.175654804745696	-0.175654804745696	-0.175654804745696	-0.175654804745696	-0.175654804745696
-0.275043391241434	-0.275043391241434	-0.275043391241434	-0.275043391241434	-0.275043391241434	-0.275043391241434
-0.359705887445726	-0.359705887445726	-0.359705887445726	-0.359705887445726	-0.359705887445726	-0.359705887445726
-0.249564433913285	-0.249564433913285	-0.249564433913285	-0.249564433913285	-0.249564433913285	-0.249564433913285
-0.334059373799056	-0.334059373799056	-0.334059373799056	-0.334059373799056	-0.334059373799056	-0.334059373799056
-0.134760564328199	-0.134760564328199	-0.134760564328199	-0.134760564328199	-0.134760564328199	-0.134760564328199
-0.142653550804881	-0.142653550804881	-0.142653550804881	-0.142653550804881	-0.142653550804881	-0.142653550804881
-0.178193622509992	-0.178193622509992	-0.178193622509992	-0.178193622509992	-0.178193622509992	-0.178193622509992
-0.0853149468632804	-0.0853149468632804	-0.0853149468632804	-0.0853149468632804	-0.0853149468632804	-0.0853149468632804
-0.139957897823596	-0.139957897823596	-0.139957897823596	-0.139957897823596	-0.139957897823596	-0.139957897823596
-0.0410421552162569	-0.0410421552162569	-0.0410421552162569	-0.0410421552162569	-0.0410421552162569	-0.0410421552162569
-0.133400863355674	-0.133400863355674	-0.133400863355674	-0.133400863355674	-0.133400863355674	-0.133400863355674
-0.123426186753782	-0.123426186753782	-0.123426186753782	-0.123426186753782	-0.123426186753782	-0.123426186753782
0.0121376453897971	0.0121376453897971	0.0121376453897971	0.0121376453897971	0.0121376453897971	0.0121376453897971
0.0287819465574803	0.0287819465574803	0.0287819465574803	0.0287819465574803	0.0287819465574803	0.0287819465574803
0.0365436826445842	0.0365436826445842	0.0365436826445842	0.0365436826445842	0.0365436826445842	0.0365436826445842
0.0396026754481084	0.0396026754481084	0.0396026754481084	0.0396026754481084	0.0396026754481084	0.0396026754481084
0.0668760395537828	0.0668760395537828	0.0668760395537828	0.0668760395537828	0.0668760395537828	0.0668760395537828
0.116749513146741	0.116749513146741	0.116749513146741	0.116749513146741	0.116749513146741	0.116749513146741
0.161378533773252	0.161378533773252	0.161378533773252	0.161378533773252	0.161378533773252	0.161378533773252
0.000213902492146881	0.000213902492146881	0.000213902492146881	0.000213902492146881	0.000213902492146881	0.000213902492146881
0.0644808918908813	0.0644808918908813	0.0644808918908813	0.0644808918908813	0.0644808918908813	0.0644808918908813
0.139531770873027	0.139531770873027	0.139531770873027	0.139531770873027	0.139531770873027	0.139531770873027
0.135032369470008	0.135032369470008	0.135032369470008	0.135032369470008	0.135032369470008	0.135032369470008
0.278307048913805	0.278307048913805	0.278307048913805	0.278307048913805	0.278307048913805	0.278307048913805
0.106415724429369	0.106415724429369	0.106415724429369	0.106415724429369	0.106415724429369	0.106415724429369
0.236506316363948	0.236506316363948	0.236506316363948	0.236506316363948	0.236506316363948	0.236506316363948
0.238763593002629	0.238763593002629	0.238763593002629	0.238763593002629	0.238763593002629	0.238763593002629
0.350882989276512	0.350882989276512	0.350882989276512	0.350882989276512	0.350882989276512	0.350882989276512
0.233366434721366	0.233366434721366	0.233366434721366	0.233366434721366	0.233366434721366	0.233366434721366
0.228473535242773	0.228473535242773	0.228473535242773	0.228473535242773	0.228473535242773	0.228473535242773
0.327043025516225	0.327043025516225	0.327043025516225	0.327043025516225	0.327043025516225	0.327043025516225
0.345281308725684	0.345281308725684	0.345281308725684	0.345281308725684	0.345281308725684	0.345281308725684
0.397445743658574	0.397445743658574	0.397445743658574	0.397445743658574	0.397445743658574	0.397445743658574
0.322142105696476	0.322142105696476	0.322142105696476	0.322142105696476	0.322142105696476	0.322142105696476
0.377771190417049	0.377771190417049	0.377771190417049	0.377771190417049	0.377771190417049	0.377771190417049
0.286847260922346	0.286847260922346	0.286847260922346	0.286847260922346	0.286847260922346	0.286847260922346
0.326387853731032	0.326387853731032	0.326387853731032	0.326387853731032	0.326387853731032	0.326387853731032
0.271858579982277	0.271858579982277	0.271858579982277	0.271858579982277	0.271858579982277	0.271858579982277
0.346598156798107	0.346598156798107	0.346598156798107	0.346598156798107	0.346598156798107	0.346598156798107
0.373701822008641	0.373701822008641	0.373701822008641	0.373701822008641	0.373701822008641	0.373701822008641
0.293225511634498	0.293225511634498	0.293225511634498	0.293225511634498	0.293225511634498	0.293225511634498
0.189908850176093	0.189908850176093	0.189908850176093	0.189908850176093	0.189908850176093	0.189908850176093
0.280068708201799	0.280068708201799	0.280068708201799	0.280068708201799	0.280068708201799	0.280068708201799
0.225233004431141	0.225233004431141	0.225233004431141	0.225233004431141	0.225233004431141	0.225233004431141
0.123372221791727	0.123372221791727	0.123372221791727	0.123372221791727	0.123372221791727	0.123372221791727
0.248705329919523	0.248705329919523	0.248705329919523	0.248705329919523	0.248705329919523	0.248705329919523
0.222812578658643	0.222812578658643	0.222812578658643	0.222812578658643	0.222812578658643	0.222812578658643
0.050018658899084	0.050018658899084	0.050018658899084	0.050018658899084	0.050018658899084	0.050018658899084
0.0740271486024661	0.0740271486024661	0.0740271486024661	0.0740271486024661	0.0740271486024661	0.0740271486024661
0.144006626775435	0.144006626775435	0.144006626775435	0.144006626775435	0.144006626775435	0.144006626775435
0.147189162871038	0.147189162871038	0.147189162871038	0.147189162871038	0.147189162871038	0.147189162871038
0.0763917457641155	0.0763917457641155	0.0763917457641155	0.0763917457641155	0.0763917457641155	0.0763917457641155
0.113312985182428	0.113312985182428	0.113312985182428	0.113312985182428	0.113312985182428	0.113312985182428
0.0668631128954468	0.0668631128954468	0.0668631128954468	0.0668631128954468	0.0668631128954468	0.0668631128954468
-0.0699813356540996	-0.0699813356540996	-0.0699813356540996	-0.0699813356540996	-0.0699813356540996	-0.0699813356540996
-0.030293022797577	-0.030293022797577	-0.030293022797577	-0.030293022797577	-0.030293022797577	-0.030293022797577
-0.0353658093908002	-0.0353658093908002	-0.0353658093908002	-0.0353658093908002	-0.0353658093908002	-0.0353658093908002
-0.0961275428144683	-0.0961275428144683	-0.0961275428144683	-0.0961275428144683	-0.0961275428144683	-0.0961275428144683
0.008231676260127	0.008231676260127	0.008231676260127	0.008231676260127	0.008231676260127	0.008231676260127
0.038565647724271	0.038565647724271	0.038565647724271	0.038565647724271	0.038565647724271	0.038565647724271
-0.103883684086557	-0.103883684086557	-0.103883684086557	-0.103883684086557	-0.103883684086557	-0.103883684086557
0.000865667560980748	0.000865667560980748	0.000865667560980748	0.000865667560980748	0.000865667560980748	0.000865667560980748
0.00700364567660183	0.00700364567660183	0.00700364567660183	0.00700364567660183	0.00700364567660183	0.00700364567660183
-0.0514210674662991	-0.0514210674662991	-0.0514210674662991	-0.0514210674662991	-0.0514210674662991	-0.0514210674662991
0.0338980342604455	0.0338980342604455	0.0338980342604455	0.0338980342604455	0.0338980342604455	0.0338980342604455
0.0557469860110971	0.0557469860110971	0.0557469860110971	0.0557469860110971	0.0557469860110971	0.0557469860110971
-0.0932977870887014	-0.0932977870887014	-0.0932977870887014	-0.0932977870887014	-0.0932977870887014	-0.0932977870887014
-0.0452904805850203	-0.0452904805850203	-0.0452904805850203	-0.0452904805850203	-0.0452904805850203	-0.0452904805850203
-0.0631967807045715	-0.0631967807045715	-0.0631967807045715	-0.0631967807045715	-0.0631967807045715	-0.0631967807045715
-0.0742388606908372	-0.0742388606908372	-0.0742388606908372	-0.0742388606908372	-0.0742388606908372	-0.0742388606908372
-0.060608342832758	-0.060608342832758	-0.060608342832758	-0.060608342832758	-0.060608342832758	-0.060608342832758
-0.111110237233346	-0.111110237233346	-0.111110237233346	-0.111110237233346	-0.111110237233346	-0.111110237233346
0.0408640496205023	0.0408640496205023	0.0408640496205023	0.0408640496205023	0.0408640496205023	0.0408640496205023
-0.113598700814733	-0.113598700814733	-0.113598700814733	-0.113598700814733	-0.113598700814733	-0.113598700814733
-0.0179754414620389	-0.0179754414620389	-0.0179754414620389	-0.0179754414620389	-0.0179754414620389	-0.0179754414620389
0.0683341138168502	0.0683341138168502	0.0683341138168502	0.0683341138168502	0.0683341138168502	0.0683341138168502
-0.0782188406566127	-0.0782188406566127	-0.0782188406566127	-0.0782188406566127	-0.0782188406566127	-0.0782188406566127
0.03283287689171	0.03283287689171	0.03283287689171	0.03283287689171	0.03283287689171	0.03283287689171
0.032421280437712	0.032421280437712	0.032421280437712	0.032421280437712	0.032421280437712	0.032421280437712
-0.0235705087072588	-0.0235705087072588	-0.0235705087072588	-0.0235705087072588	-0.0235705087072588	-0.0235705087072588
0.0133646528970462	0.0133646528970462	0.0133646528970462	0.0133646528970462	0.0133646528970462	0.0133646528970462
0.108933839500132	0.108933839500132	0.108933839500132	0.108933839500132	0.108933839500132	0.108933839500132
0.0397034234521304	0.0397034234521304	0.0397034234521304	0.0397034234521304	0.0397034234521304	0.0397034234521304
0.179083954401824	0.179083954401824	0.179083954401824	0.179083954401824	0.179083954401824	0.179083954401824
0.25760122264269	0.25760122264269	0.25760122264269	0.25760122264269	0.25760122264269	0.25760122264269
0.254417467634105	0.254417467634105	0.254417467634105	0.254417467634105	0.254417467634105	0.254417467634105
0.307403954024084	0.307403954024084	0.307403954024084	0.307403954024084	0.307403954024084	0.307403954024084
0.177677123616644	0.177677123616644	0.177677123616644	0.177677123616644	0.177677123616644	0.177677123616644
0.22058474599203	0.22058474599203	0.22058474599203	0.22058474599203	0.22058474599203	0.22058474599203
0.177304383051598	0.177304383051598	0.177304383051598	0.177304383051598	0.177304383051598	0.177304383051598
0.289829125841161	0.289829125841161	0.289829125841161	0.289829125841161	0.289829125841161	0.289829125841161
0.167680456452484	0.167680456452484	0.167680456452484	0.167680456452484	0.167680456452484	0.167680456452484
0.233537885047749	0.233537885047749	0.233537885047749	0.233537885047749	0.233537885047749	0.233537885047749
0.195285277336905	0.195285277336905	0.195285277336905	0.195285277336905	0.195285277336905	0.195285277336905
0.201086482330149	0.201086482330149	0.201086482330149	0.201086482330149	0.201086482330149	0.201086482330149
0.102840091038062	0.102840091038062	0.102840091038062	0.102840091038062	0.102840091038062	0.102840091038062
0.178182395106943	0.178182395106943	0.178182395106943	0.178182395106943	0.178182395106943	0.178182395106943
0.175765081256099	0.175765081256099	0.175765081256099	0.175765081256099	0.175765081256099	0.175765081256099
0.021085941011526	0.021085941011526	0.021085941011526	0.021085941011526	0.021085941011526	0.021085941011526
-0.0240823732026802	-0.0240823732026802	-0.0240823732026802	-0.0240823732026802	-0.0240823732026802	-0.0240823732026802
0.128988777258642	0.128988777258642	0.128988777258642	0.128988777258642	0.128988777258642	0.128988777258642
-0.0190564995280889	-0.0190564995280889	-0.0190564995280889	-0.0190564995280889	-0.0190564995280889	-0.0190564995280889
-0.0649628138327597	-0.0649628138327597	-0.0649628138327597	-0.0649628138327597	-0.0649628138327597	-0.0649628138327597
-0.0249563348358015	-0.0249563348358015	-0.0249563348358015	-0.0249563348358015	-0.0249563348358015	-0.0249563348358015
0.0356941794085522	0.0356941794085522	0.0356941794085522	0.0356941794085522	0.0356941794085522	0.0356941794085522
-0.056714987451076	-0.056714987451076	-0.056714987451076	-0.056714987451076	-0.056714987451076	-0.056714987451076
-0.0539720109193408	-0.0539720109193408	-0.0539720109193408	-0.0539720109193408	-0.0539720109193408	-0.0539720109193408
-0.0748402398652797	-0.0748402398652797	-0.0748402398652797	-0.0748402398652797	-0.0748402398652797	-0.0748402398652797
-0.249603550182655	-0.249603550182655	-0.249603550182655	-0.249603550182655	-0.249603550182655	-0.249603550182655
-0.229817231604651	-0.229817231604651	-0.229817231604651	-0.229817231604651	-0.229817231604651	-0.229817231604651
-0.148342545948925	-0.148342545948925	-0.148342545948925	-0.148342545948925	-0.148342545948925	-0.148342545948925
-0.148013379793497	-0.148013379793497	-0.148013379793497	-0.148013379793497	-0.148013379793497	-0.148013379793497
-0.0505443541236642	-0.0505443541236642	-0.0505443541236642	-0.0505443541236642	-0.0505443541236642	-0.0505443541236642
0.108100435692905	0.108100435692905	0.108100435692905	0.108100435692905	0.108100435692905	0.108100435692905
0.232015141898654	0.232015141898654	0.232015141898654	0.232015141898654	0.232015141898654	0.232015141898654
0.556886152351753	0.556886152351753	0.556886152351753	0.556886152351753	0.556886152351753	0.556886152351753
0.826731948412268	0.826731948412268	0.826731948412268	0.826731948412268	0.826731948412268	0.826731948412268
1.05785010457498	1.05785010457498	1.05785010457498	1.05785010457498	1.05785010457498	1.05785010457498
1.14230115281199	1.14230115281199	1.14230115281199	1.14230115281199	1.14230115281199	1.14230115281199
1.02341971709692	1.02341971709692	1.02341971709692	1.02341971709692	1.02341971709692	1.02341971709692
0.782414601686573	0.782414601686573	0.782414601686573	0.782414601686573	0.782414601686573	0.782414601686573
0.43668932152607	0.43668932152607	0.43668932152607	0.43668932152607	0.43668932152607	0.43668932152607
0.189665250169584	0.189665250169584	0.189665250169584	0.189665250169584	0.189665250169584	0.189665250169584
-0.117935252466455	-0.117935252466455	-0.117935252466455	-0.117935252466455	-0.117935252466455	-0.117935252466455
-0.191764464375298	-0.191764464375298	-0.191764464375298	-0.191764464375298	-0.191764464375298	-0.191764464375298
-0.300408464898564	-0.300408464898564	-0.300408464898564	-0.300408464898564	-0.300408464898564	-0.300408464898564
-0.415272417498541	-0.415272417498541	-0.415272417498541	-0.415272417498541	-0.415272417498541	-0.415272417498541
-0.298005364593484	-0.298005364593484	-0.298005364593484	-0.298005364593484	-0.298005364593484	-0.298005364593484
-0.163545262909666	-0.163545262909666	-0.163545262909666	-0.163545262909666	-0.163545262909666	-0.163545262909666
-0.175505403056985	-0.175505403056985	-0.175505403056985	-0.175505403056985	-0.175505403056985	-0.175505403056985
-0.0699062105540089	-0.0699062105540089	-0.0699062105540089	-0.0699062105540089	-0.0699062105540089	-0.0699062105540089
-0.168311822358379	-0.168311822358379	-0.168311822358379	-0.168311822358379	-0.168311822358379	-0.168311822358379
0.00187815440472175	0.00187815440472175	0.00187815440472175	0.00187815440472175	0.00187815440472175	0.00187815440472175
-0.121634096889185	-0.121634096889185	-0.121634096889185	-0.121634096889185	-0.121634096889185	-0.121634096889185
-0.13200834527687	-0.13200834527687	-0.13200834527687	-0.13200834527687	-0.13200834527687	-0.13200834527687
-0.0184239545734197	-0.0184239545734197	-0.0184239545734197	-0.0184239545734197	-0.0184239545734197	-0.0184239545734197
-0.0132998640987977	-0.0132998640987977	-0.0132998640987977	-0.0132998640987977	-0.0132998640987977	-0.0132998640987977
0.079842707205875	0.079842707205875	0.079842707205875	0.079842707205875	0.079842707205875	0.079842707205875
-0.0602202603568461	-0.0602202603568461	-0.0602202603568461	-0.0602202603568461	-0.0602202603568461	-0.0602202603568461
0.064278776757146	0.064278776757146	0.064278776757146	0.064278776757146	0.064278776757146	0.064278776757146
-0.0397096804697028	-0.0397096804697028	-0.0397096804697028	-0.0397096804697028	-0.0397096804697028	-0.0397096804697028
0.127773687648219	0.127773687648219	0.127773687648219	0.127773687648219	0.127773687648219	0.127773687648219
0.150765629556896	0.150765629556896	0.150765629556896	0.150765629556896	0.150765629556896	0.150765629556896
0.073572728302052	0.073572728302052	0.073572728302052	0.073572728302052	0.073572728302052	0.073572728302052
0.129222026581385	0.129222026581385	0.129222026581385	0.129222026581385	0.129222026581385	0.129222026581385
0.198557260498267	0.198557260498267	0.198557260498267	0.198557260498267	0.198557260498267	0.198557260498267
0.122145851220798	0.122145851220798	0.122145851220798	0.122145851220798	0.122145851220798	0.122145851220798
0.153057861922968	0.153057861922968	0.153057861922968	0.153057861922968	0.153057861922968	0.153057861922968
0.117590143143678	0.117590143143678	0.117590143143678	0.117590143143678	0.117590143143678	0.117590143143678
0.324546968201386	0.324546968201386	0.324546968201386	0.324546968201386	0.324546968201386	0.324546968201386
0.277235990624738	0.277235990624738	0.277235990624738	0.277235990624738	0.277235990624738	0.277235990624738
0.195097020181287	0.195097020181287	0.195097020181287	0.195097020181287	0.195097020181287	0.195097020181287
0.274207515093998	0.274207515093998	0.274207515093998	0.274207515093998	0.274207515093998	0.274207515093998
0.407058218661789	0.407058218661789	0.407058218661789	0.407058218661789	0.407058218661789	0.407058218661789
0.2507172226517	0.2507172226517	0.2507172226517	0.2507172226517	0.2507172226517	0.2507172226517
0.250311458092072	0.250311458092072	0.250311458092072	0.250311458092072	0.250311458092072	0.250311458092072
0.358669193597139	0.358669193597139	0.358669193597139	0.358669193597139	0.358669193597139	0.358669193597139
0.31392422330282	0.31392422330282	0.31392422330282	0.31392422330282	0.31392422330282	0.31392422330282
0.305173141503119	0.305173141503119	0.305173141503119	0.305173141503119	0.305173141503119	0.305173141503119
0.276032848068746	0.276032848068746	0.276032848068746	0.276032848068746	0.276032848068746	0.276032848068746
0.334776486574171	0.334776486574171	0.334776486574171	0.334776486574171	0.334776486574171	0.334776486574171
0.430221294859881	0.430221294859881	0.430221294859881	0.430221294859881	0.430221294859881	0.430221294859881
0.303806265871619	0.303806265871619	0.303806265871619	0.303806265871619	0.303806265871619	0.303806265871619
0.382318929690665	0.382318929690665	0.382318929690665	0.382318929690665	0.382318929690665	0.382318929690665
0.267942505207178	0.267942505207178	0.267942505207178	0.267942505207178	0.267942505207178	0.267942505207178
0.386995529613191	0.386995529613191	0.386995529613191	0.386995529613191	0.386995529613191	0.386995529613191
0.290134062208168	0.290134062208168	0.290134062208168	0.290134062208168	0.290134062208168	0.290134062208168
0.273840878242964	0.273840878242964	0.273840878242964	0.273840878242964	0.273840878242964	0.273840878242964
0.334942551997703	0.334942551997703	0.334942551997703	0.334942551997703	0.334942551997703	0.334942551997703
0.208933242583145	0.208933242583145	0.208933242583145	0.208933242583145	0.208933242583145	0.208933242583145
0.283494197044713	0.283494197044713	0.283494197044713	0.283494197044713	0.283494197044713	0.283494197044713
0.201701359176045	0.201701359176045	0.201701359176045	0.201701359176045	0.201701359176045	0.201701359176045
0.193276033569991	0.193276033569991	0.193276033569991	0.193276033569991	0.193276033569991	0.193276033569991
0.0843610998707787	0.0843610998707787	0.0843610998707787	0.0843610998707787	0.0843610998707787	0.0843610998707787
0.00261728276985393	0.00261728276985393	0.00261728276985393	0.00261728276985393	0.00261728276985393	0.00261728276985393
0.158656682526395	0.158656682526395	0.158656682526395	0.158656682526395	0.158656682526395	0.158656682526395
-0.0123805527942709	-0.0123805527942709	-0.0123805527942709	-0.0123805527942709	-0.0123805527942709	-0.0123805527942709
-0.0132623286360647	-0.0132623286360647	-0.0132623286360647	-0.0132623286360647	-0.0132623286360647	-0.0132623286360647
0.084229416064639	0.084229416064639	0.084229416064639	0.084229416064639	0.084229416064639	0.084229416064639
0.0316766802519324	0.0316766802519324	0.0316766802519324	0.0316766802519324	0.0316766802519324	0.0316766802519324
0.00571201491421527	0.00571201491421527	0.00571201491421527	0.00571201491421527	0.00571201491421527	0.00571201491421527
-0.0517627487419729	-0.0517627487419729	-0.0517627487419729	-0.0517627487419729	-0.0517627487419729	-0.0517627487419729
-0.110136226305432	-0.110136226305432	-0.110136226305432	-0.110136226305432	-0.110136226305432	-0.110136226305432
-0.0157521265005839	-0.0157521265005839	-0.0157521265005839	-0.0157521265005839	-0.0157521265005839	-0.0157521265005839
0.0484268283044383	0.0484268283044383	0.0484268283044383	0.0484268283044383	0.0484268283044383	0.0484268283044383
-0.0076081332689687	-0.0076081332689687	-0.0076081332689687	-0.0076081332689687	-0.0076081332689687	-0.0076081332689687
-0.103745220011526	-0.103745220011526	-0.103745220011526	-0.103745220011526	-0.103745220011526	-0.103745220011526
-0.0674246687197762	-0.0674246687197762	-0.0674246687197762	-0.0674246687197762	-0.0674246687197762	-0.0674246687197762
0.079829259439484	0.079829259439484	0.079829259439484	0.079829259439484	0.079829259439484	0.079829259439484
0.045193753624379	0.045193753624379	0.045193753624379	0.045193753624379	0.045193753624379	0.045193753624379
-0.035611513074616	-0.035611513074616	-0.035611513074616	-0.035611513074616	-0.035611513074616	-0.035611513074616
-0.0738083280637197	-0.0738083280637197	-0.0738083280637197	-0.0738083280637197	-0.0738083280637197	-0.0738083280637197
-0.0917394683646585	-0.0917394683646585	-0.0917394683646585	-0.0917394683646585	-0.0917394683646585	-0.0917394683646585
0.0365558191602344	0.0365558191602344	0.0365558191602344	0.0365558191602344	0.0365558191602344	0.0365558191602344
0.0284969488039894	0.0284969488039894	0.0284969488039894	0.0284969488039894	0.0284969488039894	0.0284969488039894
-0.102067087032275	-0.102067087032275	-0.102067087032275	-0.102067087032275	-0.102067087032275	-0.102067087032275
0.0192056914403488	0.0192056914403488	0.0192056914403488	0.0192056914403488	0.0192056914403488	0.0192056914403488
-0.0289453934534583	-0.0289453934534583	-0.0289453934534583	-0.0289453934534583	-0.0289453934534583	-0.0289453934534583
0.0379072417240912	0.0379072417240912	0.0379072417240912	0.0379072417240912	0.0379072417240912	0.0379072417240912
0.0730701946874176	0.0730701946874176	0.0730701946874176	0.0730701946874176	0.0730701946874176	0.0730701946874176
0.0449039427326453	0.0449039427326453	0.0449039427326453	0.0449039427326453	0.0449039427326453	0.0449039427326453
