1.04131927415084	1.04131927415084	1.04131927415084	1.04131927415084	1.04131927415084	1.04131927415084
0.84885238741915	0.84885238741915	0.84885238741915	0.84885238741915	0.84885238741915	0.84885238741915
0.62907585643729	0.62907585643729	0.62907585643729	0.62907585643729	0.62907585643729	0.62907585643729
0.333958447367773	0.333958447367773	0.333958447367773	0.333958447367773	0.333958447367773	0.333958447367773
0.0302583724010019	0.0302583724010019	0.0302583724010019	0.0302583724010019	0.0302583724010019	0.0302583724010019
-0.0496248235293009	-0.0496248235293009	-0.0496248235293009	-0.0496248235293009	-0.0496248235293009	-0.0496248235293009
-0.37510254529809	-0.37510254529809	-0.37510254529809	-0.37510254529809	-0.37510254529809	-0.37510254529809
-0.296144808976631	-0.296144808976631	-0.296144808976631	-0.296144808976631	-0.296144808976631	-0.296144808976631
-0.45643827080185	-0.45643827080185	-0.45643827080185	-0.45643827080185	-0.45643827080185	-0.45643827080185
-0.338484842136326	-0.338484842136326	-0.338484842136326	-0.338484842136326	-0.338484842136326	-0.338484842136326
-0.228009073478586	-0.228009073478586	-0.228009073478586	-0.228009073478586	-0.228009073478586	-0.228009073478586
-0.279166421723236	-0.279166421723236	-0.279166421723236	-0.279166421723236	-0.279166421723236	-0.279166421723236
-0.287530663114165	-0.287530663114165	-0.287530663114165	-0.287530663114165	-0.287530663114165	-0.287530663114165
-0.123167232170701	-0.123167232170701	-0.123167232170701	-0.123167232170701	-0.123167232170701	-0.123167232170701
-0.233127054063475	-0.233127054063475	-0.233127054063475	-0.233127054063475	-0.233127054063475	-0.233127054063475
-0.0426865732816628	-0.0426865732816628	-0.0426865732816628	-0.0426865732816628	-0.0426865732816628	-0.0426865732816628
-0.0529403899135132	-0.0529403899135132	-0.0529403899135132	-0.0529403899135132	-0.0529403899135132	-0.0529403899135132
-0.171932403487928	-0.171932403487928	-0.171932403487928	-0.171932403487928	-0.171932403487928	-0.171932403487928
-0.125347356718649	-0.125347356718649	-0.125347356718649	-0.125347356718649	-0.125347356718649	-0.125347356718649
-0.0374953942699649	-0.0374953942699649	-0.0374953942699649	-0.0374953942699649	-0.0374953942699649	-0.0374953942699649
-0.0347455456664897	-0.0347455456664897	-0.0347455456664897	-0.0347455456664897	-0.0347455456664897	-0.0347455456664897
-0.122805924659585	-0.122805924659585	-0.122805924659585	-0.122805924659585	-0.122805924659585	-0.122805924659585
0.0492158561678381	0.0492158561678381	0.0492158561678381	0.0492158561678381	0.0492158561678381	0.0492158561678381
0.028143506362246	0.028143506362246	0.028143506362246	0.028143506362246	0.028143506362246	0.028143506362246
0.0712246097444375	0.0712246097444375	0.0712246097444375	0.0712246097444375	0.0712246097444375	0.0712246097444375
-0.0797542680883503	-0.0797542680883503	-0.0797542680883503	-0.0797542680883503	-0.0797542680883503	-0.0797542680883503
-0.058228496719053	-0.058228496719053	-0.058228496719053	-0.058228496719053	-0.058228496719053	-0.058228496719053
0.0320851209145112	0.0320851209145112	0.0320851209145112	0.0320851209145112	0.0320851209145112	0.0320851209145112
-0.000152202317120709	-0.000152202317120709	-0.000152202317120709	-0.000152202317120709	-0.000152202317120709	-0.000152202317120709
0.0832462226868638	0.0832462226868638	0.0832462226868638	0.0832462226868638	0.0832462226868638	0.0832462226868638
0.117522718984833	0.117522718984833	0.117522718984833	0.117522718984833	0.117522718984833	0.117522718984833
0.125872208973886	0.125872208973886	0.125872208973886	0.125872208973886	0.125872208973886	0.125872208973886
0.132111451928366	0.132111451928366	0.132111451928366	0.132111451928366	0.132111451928366	0.132111451928366
0.296427432032266	0.296427432032266	0.296427432032266	0.296427432032266	0.296427432032266	0.296427432032266
0.17122285588752	0.17122285588752	0.17122285588752	0.17122285588752	0.17122285588752	0.17122285588752
0.256061804798708	0.256061804798708	0.256061804798708	0.256061804798708	0.256061804798708	0.256061804798708
0.180870235402347	0.180870235402347	0.180870235402347	0.180870235402347	0.180870235402347	0.180870235402347
0.206789005924102	0.206789005924102	0.206789005924102	0.206789005924102	0.206789005924102	0.206789005924102
0.24694971377659	0.24694971377659	0.24694971377659	0.24694971377659	0.24694971377659	0.24694971377659
0.359432600237722	0.359432600237722	0.359432600237722	0.359432600237722	0.359432600237722	0.359432600237722
0.308294268778824	0.308294268778824	0.308294268778824	0.308294268778824	0.308294268778824	0.308294268778824
0.291519609653871	0.291519609653871	0.291519609653871	0.291519609653871	0.291519609653871	0.291519609653871
0.205925091621706	0.205925091621706	0.205925091621706	0.205925091621706	0.205925091621706	0.205925091621706
0.347035785824334	0.347035785824334	0.347035785824334	0.347035785824334	0.347035785824334	0.347035785824334
0.270575545687612	0.270575545687612	0.270575545687612	0.270575545687612	0.270575545687612	0.270575545687612
0.374600394798988	0.374600394798988	0.374600394798988	0.374600394798988	0.374600394798988	0.374600394798988
0.267601727619803	0.267601727619803	0.267601727619803	0.267601727619803	0.267601727619803	0.267601727619803
0.210790268565759	0.210790268565759	0.210790268565759	0.210790268565759	0.210790268565759	0.210790268565759
0.211195340769023	0.211195340769023	0.211195340769023	0.211195340769023	0.211195340769023	0.211195340769023
0.259798422776843	0.259798422776843	0.259798422776843	0.259798422776843	0.259798422776843	0.259798422776843
0.1054471529175	0.1054471529175	0.1054471529175	0.1054471529175	0.1054471529175	0.1054471529175
0.253949761082346	0.253949761082346	0.253949761082346	0.253949761082346	0.253949761082346	0.253949761082346
0.132004101325825	0.132004101325825	0.132004101325825	0.132004101325825	0.132004101325825	0.132004101325825
0.117783993107261	0.117783993107261	0.117783993107261	0.117783993107261	0.117783993107261	0.117783993107261
0.130839329483669	0.130839329483669	0.130839329483669	0.130839329483669	0.130839329483669	0.130839329483669
0.132711057093266	0.132711057093266	0.132711057093266	0.132711057093266	0.132711057093266	0.132711057093266
0.13231115396597	0.13231115396597	0.13231115396597	0.13231115396597	0.13231115396597	0.13231115396597
-0.0316076168675696	-0.0316076168675696	-0.0316076168675696	-0.0316076168675696	-0.0316076168675696	-0.0316076168675696
-0.102119693801835	-0.102119693801835	-0.102119693801835	-0.102119693801835	-0.102119693801835	-0.102119693801835
-0.0313029513154856	-0.0313029513154856	-0.0313029513154856	-0.0313029513154856	-0.0313029513154856	-0.0313029513154856
0.0545869151841178	0.0545869151841178	0.0545869151841178	0.0545869151841178	0.0545869151841178	0.0545869151841178
-0.109368950757054	-0.109368950757054	-0.109368950757054	-0.109368950757054	-0.109368950757054	-0.109368950757054
-0.0188542170714473	-0.0188542170714473	-0.0188542170714473	-0.0188542170714473	-0.0188542170714473	-0.0188542170714473
-0.165899375466981	-0.165899375466981	-0.165899375466981	-0.165899375466981	-0.165899375466981	-0.165899375466981
-0.068551213835947	-0.068551213835947	-0.068551213835947	-0.068551213835947	-0.068551213835947	-0.068551213835947
-0.105597721221102	-0.105597721221102	-0.105597721221102	-0.105597721221102	-0.105597721221102	-0.105597721221102
-0.0785567138696998	-0.0785567138696998	-0.0785567138696998	-0.0785567138696998	-0.0785567138696998	-0.0785567138696998
-0.0402494370019731	-0.0402494370019731	-0.0402494370019731	-0.0402494370019731	-0.0402494370019731	-0.0402494370019731
-0.101557577605817	-0.101557577605817	-0.101557577605817	-0.101557577605817	-0.101557577605817	-0.101557577605817
-0.130925700491395	-0.130925700491395	-0.130925700491395	-0.130925700491395	-0.130925700491395	-0.130925700491395
-0.063565936182193	-0.063565936182193	-0.063565936182193	-0.063565936182193	-0.063565936182193	-0.063565936182193
-0.0712514276941362	-0.0712514276941362	-0.0712514276941362	-0.0712514276941362	-0.0712514276941362	-0.0712514276941362
-0.093274343043813	-0.093274343043813	-0.093274343043813	-0.093274343043813	-0.093274343043813	-0.093274343043813
-0.129797811696954	-0.129797811696954	-0.129797811696954	-0.129797811696954	-0.129797811696954	-0.129797811696954
-0.12409625858469	-0.12409625858469	-0.12409625858469	-0.12409625858469	-0.12409625858469	-0.12409625858469
-0.0564091294668557	-0.0564091294668557	-0.0564091294668557	-0.0564091294668557	-0.0564091294668557	-0.0564091294668557
-0.0362358975078147	-0.0362358975078147	-0.0362358975078147	-0.0362358975078147	-0.0362358975078147	-0.0362358975078147
-0.147538806275342	-0.147538806275342	-0.147538806275342	-0.147538806275342	-0.147538806275342	-0.147538806275342
-0.00811718401384389	-0.00811718401384389	-0.00811718401384389	-0.00811718401384389	-0.00811718401384389	-0.00811718401384389
-0.0638592530287885	-0.0638592530287885	-0.0638592530287885	-0.0638592530287885	-0.0638592530287885	-0.0638592530287885
0.0500787677034845	0.0500787677034845	0.0500787677034845	0.0500787677034845	0.0500787677034845	0.0500787677034845
-0.0268812900365454	-0.0268812900365454	-0.0268812900365454	-0.0268812900365454	-0.0268812900365454	-0.0268812900365454
-0.0292908337452195	-0.0292908337452195	-0.0292908337452195	-0.0292908337452195	-0.0292908337452195	-0.0292908337452195
-0.0696654279539379	-0.0696654279539379	-0.0696654279539379	-0.0696654279539379	-0.0696654279539379	-0.0696654279539379
0.0839331038222428	0.0839331038222428	0.0839331038222428	0.0839331038222428	0.0839331038222428	0.0839331038222428
0.098266781873582	0.098266781873582	0.098266781873582	0.098266781873582	0.098266781873582	0.098266781873582
-0.000271897285091249	-0.000271897285091249	-0.000271897285091249	-0.000271897285091249	-0.000271897285091249	-0.000271897285091249
0.0255693049034897	0.0255693049034897	0.0255693049034897	0.0255693049034897	0.0255693049034897	0.0255693049034897
0.0820667708030479	0.0820667708030479	0.0820667708030479	0.0820667708030479	0.0820667708030479	0.0820667708030479
0.150492459774071	0.150492459774071	0.150492459774071	0.150492459774071	0.150492459774071	0.150492459774071
0.158207437375236	0.158207437375236	0.158207437375236	0.158207437375236	0.158207437375236	0.158207437375236
0.148276375327489	0.148276375327489	0.148276375327489	0.148276375327489	0.148276375327489	0.148276375327489
0.145809322108568	0.145809322108568	0.145809322108568	0.145809322108568	0.145809322108568	0.145809322108568
0.243062681502978	0.243062681502978	0.243062681502978	0.243062681502978	0.243062681502978	0.243062681502978
0.122330617682304	0.122330617682304	0.122330617682304	0.122330617682304	0.122330617682304	0.122330617682304
0.28707660608067	0.28707660608067	0.28707660608067	0.28707660608067	0.28707660608067	0.28707660608067
0.216170223717012	0.216170223717012	0.216170223717012	0.216170223717012	0.216170223717012	0.216170223717012
0.116231800565186	0.116231800565186	0.116231800565186	0.116231800565186	0.116231800565186	0.116231800565186
0.152863049898363	0.152863049898363	0.152863049898363	0.152863049898363	0.152863049898363	0.152863049898363
0.155361313737102	0.155361313737102	0.155361313737102	0.155361313737102	0.155361313737102	0.155361313737102
0.268019345462898	0.268019345462898	0.268019345462898	0.268019345462898	0.268019345462898	0.268019345462898
0.179994142590619	0.179994142590619	0.179994142590619	0.179994142590619	0.179994142590619	0.179994142590619
0.0688739031187144	0.0688739031187144	0.0688739031187144	0.0688739031187144	0.0688739031187144	0.0688739031187144
0.164208717750898	0.164208717750898	0.164208717750898	0.164208717750898	0.164208717750898	0.164208717750898
0.111475480283422	0.111475480283422	0.111475480283422	0.111475480283422	0.111475480283422	0.111475480283422
0.143064796203164	0.143064796203164	0.143064796203164	0.143064796203164	0.143064796203164	0.143064796203164
0.0129037998279931	0.0129037998279931	0.0129037998279931	0.0129037998279931	0.0129037998279931	0.0129037998279931
-0.0182106854593536	-0.0182106854593536	-0.0182106854593536	-0.0182106854593536	-0.0182106854593536	-0.0182106854593536
-0.0248382517078934	-0.0248382517078934	-0.0248382517078934	-0.0248382517078934	-0.0248382517078934	-0.0248382517078934
-0.00449638308998497	-0.00449638308998497	-0.00449638308998497	-0.00449638308998497	-0.00449638308998497	-0.00449638308998497
-0.114090175830155	-0.114090175830155	-0.114090175830155	-0.114090175830155	-0.114090175830155	-0.114090175830155
0.0300488602371718	0.0300488602371718	0.0300488602371718	0.0300488602371718	0.0300488602371718	0.0300488602371718
-0.0854731912133162	-0.0854731912133162	-0.0854731912133162	-0.0854731912133162	-0.0854731912133162	-0.0854731912133162
-0.0405202079054073	-0.0405202079054073	-0.0405202079054073	-0.0405202079054073	-0.0405202079054073	-0.0405202079054073
-0.161267062047006	-0.161267062047006	-0.161267062047006	-0.161267062047006	-0.161267062047006	-0.161267062047006
-0.178295507362424	-0.178295507362424	-0.178295507362424	-0.178295507362424	-0.178295507362424	-0.178295507362424
-0.214244187566113	-0.214244187566113	-0.214244187566113	-0.214244187566113	-0.214244187566113	-0.214244187566113
-0.309199364249986	-0.309199364249986	-0.309199364249986	-0.309199364249986	-0.309199364249986	-0.309199364249986
-0.195002538161489	-0.195002538161489	-0.195002538161489	-0.195002538161489	-0.195002538161489	-0.195002538161489
-0.045259215618738	-0.045259215618738	-0.045259215618738	-0.045259215618738	-0.045259215618738	-0.045259215618738
-0.0525519485370059	-0.0525519485370059	-0.0525519485370059	-0.0525519485370059	-0.0525519485370059	-0.0525519485370059
0.250129060018832	0.250129060018832	0.250129060018832	0.250129060018832	0.250129060018832	0.250129060018832
0.528452762343601	0.528452762343601	0.528452762343601	0.528452762343601	0.528452762343601	0.528452762343601
0.756592262175831	0.756592262175831	0.756592262175831	0.756592262175831	0.756592262175831	0.756592262175831
0.89914521591503	0.89914521591503	0.89914521591503	0.89914521591503	0.89914521591503	0.89914521591503
1.09911805904853	1.09911805904853	1.09911805904853	1.09911805904853	1.09911805904853	1.09911805904853
0.995038766478174	0.995038766478174	0.995038766478174	0.995038766478174	0.995038766478174	0.995038766478174
0.75789256273591	0.75789256273591	0.75789256273591	0.75789256273591	0.75789256273591	0.75789256273591
0.475183747556012	0.475183747556012	0.475183747556012	0.475183747556012	0.475183747556012	0.475183747556012
0.26474572157901	0.26474572157901	0.26474572157901	0.26474572157901	0.26474572157901	0.26474572157901
-0.137605124408946	-0.137605124408946	-0.137605124408946	-0.137605124408946	-0.137605124408946	-0.137605124408946
-0.229300267560264	-0.229300267560264	-0.229300267560264	-0.229300267560264	-0.229300267560264	-0.229300267560264
-0.287178588336569	-0.287178588336569	-0.287178588336569	-0.287178588336569	-0.287178588336569	-0.287178588336569
-0.401962046190462	-0.401962046190462	-0.401962046190462	-0.401962046190462	-0.401962046190462	-0.401962046190462
-0.347994821617556	-0.347994821617556	-0.347994821617556	-0.347994821617556	-0.347994821617556	-0.347994821617556
-0.328755750057015	-0.328755750057015	-0.328755750057015	-0.328755750057015	-0.328755750057015	-0.328755750057015
-0.244700578566556	-0.244700578566556	-0.244700578566556	-0.244700578566556	-0.244700578566556	-0.244700578566556
-0.117832006888419	-0.117832006888419	-0.117832006888419	-0.117832006888419	-0.117832006888419	-0.117832006888419
-0.0671217505829221	-0.0671217505829221	-0.0671217505829221	-0.0671217505829221	-0.0671217505829221	-0.0671217505829221
-0.0348080848659502	-0.0348080848659502	-0.0348080848659502	-0.0348080848659502	-0.0348080848659502	-0.0348080848659502
-0.047443596669575	-0.047443596669575	-0.047443596669575	-0.047443596669575	-0.047443596669575	-0.047443596669575
-0.0146018583075666	-0.0146018583075666	-0.0146018583075666	-0.0146018583075666	-0.0146018583075666	-0.0146018583075666
-0.0175550735605208	-0.0175550735605208	-0.0175550735605208	-0.0175550735605208	-0.0175550735605208	-0.0175550735605208
0.0300596319084866	0.0300596319084866	0.0300596319084866	0.0300596319084866	0.0300596319084866	0.0300596319084866
-0.0681393062578118	-0.0681393062578118	-0.0681393062578118	-0.0681393062578118	-0.0681393062578118	-0.0681393062578118
-0.08745876732449	-0.08745876732449	-0.08745876732449	-0.08745876732449	-0.08745876732449	-0.08745876732449
-0.0341906320236225	-0.0341906320236225	-0.0341906320236225	-0.0341906320236225	-0.0341906320236225	-0.0341906320236225
-0.00719968331580431	-0.00719968331580431	-0.00719968331580431	-0.00719968331580431	-0.00719968331580431	-0.00719968331580431
-0.00117337200377614	-0.00117337200377614	-0.00117337200377614	-0.00117337200377614	-0.00117337200377614	-0.00117337200377614
0.0805173708268223	0.0805173708268223	0.0805173708268223	0.0805173708268223	0.0805173708268223	0.0805173708268223
0.0220332966754833	0.0220332966754833	0.0220332966754833	0.0220332966754833	0.0220332966754833	0.0220332966754833
0.0463248117056861	0.0463248117056861	0.0463248117056861	0.0463248117056861	0.0463248117056861	0.0463248117056861
0.14609456029105	0.14609456029105	0.14609456029105	0.14609456029105	0.14609456029105	0.14609456029105
0.190776067278364	0.190776067278364	0.190776067278364	0.190776067278364	0.190776067278364	0.190776067278364
0.172919251674005	0.172919251674005	0.172919251674005	0.172919251674005	0.172919251674005	0.172919251674005
0.281343934567876	0.281343934567876	0.281343934567876	0.281343934567876	0.281343934567876	0.281343934567876
0.222696020214997	0.222696020214997	0.222696020214997	0.222696020214997	0.222696020214997	0.222696020214997
0.169666040654736	0.169666040654736	0.169666040654736	0.169666040654736	0.169666040654736	0.169666040654736
0.215570643312458	0.215570643312458	0.215570643312458	0.215570643312458	0.215570643312458	0.215570643312458
0.235117955918714	0.235117955918714	0.235117955918714	0.235117955918714	0.235117955918714	0.235117955918714
0.376368809984008	0.376368809984008	0.376368809984008	0.376368809984008	0.376368809984008	0.376368809984008
0.43061652390618	0.43061652390618	0.43061652390618	0.43061652390618	0.43061652390618	0.43061652390618
0.393323881917726	0.393323881917726	0.393323881917726	0.393323881917726	0.393323881917726	0.393323881917726
0.340280194616401	0.340280194616401	0.340280194616401	0.340280194616401	0.340280194616401	0.340280194616401
0.388873168587361	0.388873168587361	0.388873168587361	0.388873168587361	0.388873168587361	0.388873168587361
0.311966269692614	0.311966269692614	0.311966269692614	0.311966269692614	0.311966269692614	0.311966269692614
0.295496695058321	0.295496695058321	0.295496695058321	0.295496695058321	0.295496695058321	0.295496695058321
0.46688016529523	0.46688016529523	0.46688016529523	0.46688016529523	0.46688016529523	0.46688016529523
0.327645813629266	0.327645813629266	0.327645813629266	0.327645813629266	0.327645813629266	0.327645813629266
0.282435225071343	0.282435225071343	0.282435225071343	0.282435225071343	0.282435225071343	0.282435225071343
0.399954753169544	0.399954753169544	0.399954753169544	0.399954753169544	0.399954753169544	0.399954753169544
0.351332122821661	0.351332122821661	0.351332122821661	0.351332122821661	0.351332122821661	0.351332122821661
0.232148547600023	0.232148547600023	0.232148547600023	0.232148547600023	0.232148547600023	0.232148547600023
0.227511481131079	0.227511481131079	0.227511481131079	0.227511481131079	0.227511481131079	0.227511481131079
0.255112523405989	0.255112523405989	0.255112523405989	0.255112523405989	0.255112523405989	0.255112523405989
0.333293682420105	0.333293682420105	0.333293682420105	0.333293682420105	0.333293682420105	0.333293682420105
0.299620267675612	0.299620267675612	0.299620267675612	0.299620267675612	0.299620267675612	0.299620267675612
0.144327092014838	0.144327092014838	0.144327092014838	0.144327092014838	0.144327092014838	0.144327092014838
0.222996712548408	0.222996712548408	0.222996712548408	0.222996712548408	0.222996712548408	0.222996712548408
0.198519418563708	0.198519418563708	0.198519418563708	0.198519418563708	0.198519418563708	0.198519418563708
0.0949462652592752	0.0949462652592752	0.0949462652592752	0.0949462652592752	0.0949462652592752	0.0949462652592752
0.104920286958732	0.104920286958732	0.104920286958732	0.104920286958732	0.104920286958732	0.104920286958732
0.0594352246535144	0.0594352246535144	0.0594352246535144	0.0594352246535144	0.0594352246535144	0.0594352246535144
0.0865135532551315	0.0865135532551315	0.0865135532551315	0.0865135532551315	0.0865135532551315	0.0865135532551315
-0.026772430147697	-0.026772430147697	-0.026772430147697	-0.026772430147697	-0.026772430147697	-0.026772430147697
0.119837042618712	0.119837042618712	0.119837042618712	0.119837042618712	0.119837042618712	0.119837042618712
-0.0195410587272491	-0.0195410587272491	-0.0195410587272491	-0.0195410587272491	-0.0195410587272491	-0.0195410587272491
0.0955629179438996	0.0955629179438996	0.0955629179438996	0.0955629179438996	0.0955629179438996	0.0955629179438996
0.0487709384227573	0.0487709384227573	0.0487709384227573	0.0487709384227573	0.0487709384227573	0.0487709384227573
0.0801664778325167	0.0801664778325167	0.0801664778325167	0.0801664778325167	0.0801664778325167	0.0801664778325167
0.0691747581266181	0.0691747581266181	0.0691747581266181	0.0691747581266181	0.0691747581266181	0.0691747581266181
-0.0279286888434576	-0.0279286888434576	-0.0279286888434576	-0.0279286888434576	-0.0279286888434576	-0.0279286888434576
0.0327723030724236	0.0327723030724236	0.0327723030724236	0.0327723030724236	0.0327723030724236	0.0327723030724236
0.0841336202023971	0.0841336202023971	0.0841336202023971	0.0841336202023971	0.0841336202023971	0.0841336202023971
-0.0707573609836201	-0.0707573609836201	-0.0707573609836201	-0.0707573609836201	-0.0707573609836201	-0.0707573609836201
-0.055397068549306	-0.055397068549306	-0.055397068549306	-0.055397068549306	-0.055397068549306	-0.055397068549306
-0.0963256716928362	-0.0963256716928362	-0.0963256716928362	-0.0963256716928362	-0.0963256716928362	-0.0963256716928362
0.0837232765492551	0.0837232765492551	0.0837232765492551	0.0837232765492551	0.0837232765492551	0.0837232765492551
-0.0574690790822164	-0.0574690790822164	-0.0574690790822164	-0.0574690790822164	-0.0574690790822164	-0.0574690790822164
0.0357722495423405	0.0357722495423405	0.0357722495423405	0.0357722495423405	0.0357722495423405	0.0357722495423405
0.0394549781898823	0.0394549781898823	0.0394549781898823	0.0394549781898823	0.0394549781898823	0.0394549781898823
-0.036547559276493	-0.036547559276493	-0.036547559276493	-0.036547559276493	-0.036547559276493	-0.036547559276493
0.103018047587135	0.103018047587135	0.103018047587135	0.103018047587135	0.103018047587135	0.103018047587135
0.0991487464132463	0.0991487464132463	0.0991487464132463	0.0991487464132463	0.0991487464132463	0.0991487464132463
-0.0195322680942421	-0.0195322680942421	-0.0195322680942421	-0.0195322680942421	-0.0195322680942421	-0.0195322680942421
0.118927281367304	0.118927281367304	0.118927281367304	0.118927281367304	0.118927281367304	0.118927281367304
-0.0253323649251818	-0.0253323649251818	-0.0253323649251818	-0.0253323649251818	-0.0253323649251818	-0.0253323649251818
-0.0176823494877733	-0.0176823494877733	-0.0176823494877733	-0.0176823494877733	-0.0176823494877733	-0.0176823494877733
0.0326416340806067	0.0326416340806067	0.0326416340806067	0.0326416340806067	0.0326416340806067	0.0326416340806067
0.0881138932512823	0.0881138932512823	0.0881138932512823	0.0881138932512823	0.0881138932512823	0.0881138932512823
0.0506709403005635	0.0506709403005635	0.0506709403005635	0.0506709403005635	0.0506709403005635	0.0506709403005635
0.208774382244563	0.208774382244563	0.208774382244563	0.208774382244563	0.208774382244563	0.208774382244563
0.0587108033483385	0.0587108033483385	0.0587108033483385	0.0587108033483385	0.0587108033483385	0.0587108033483385
0.195011312731882	0.195011312731882	0.195011312731882	0.195011312731882	0.195011312731882	0.195011312731882
0.246558704260793	0.246558704260793	0.246558704260793	0.246558704260793	0.246558704260793	0.246558704260793
0.12167310488059	0.12167310488059	0.12167310488059	0.12167310488059	0.12167310488059	0.12167310488059
0.273386125667982	0.273386125667982	0.273386125667982	0.273386125667982	0.273386125667982	0.273386125667982
0.281860022247523	0.281860022247523	0.281860022247523	0.281860022247523	0.281860022247523	0.281860022247523
0.341213613160853	0.341213613160853	0.341213613160853	0.341213613160853	0.341213613160853	0.341213613160853
0.262876266419157	0.262876266419157	0.262876266419157	0.262876266419157	0.262876266419157	0.262876266419157
0.209641108820652	0.209641108820652	0.209641108820652	0.209641108820652	0.209641108820652	0.209641108820652
0.205408617536978	0.205408617536978	0.205408617536978	0.205408617536978	0.205408617536978	0.205408617536978
0.236689319755124	0.236689319755124	0.236689319755124	0.236689319755124	0.236689319755124	0.236689319755124
0.311775836140019	0.311775836140019	0.311775836140019	0.311775836140019	0.311775836140019	0.311775836140019
0.162918396688976	0.162918396688976	0.162918396688976	0.162918396688976	0.162918396688976	0.162918396688976
0.32363547103709	0.32363547103709	0.32363547103709	0.32363547103709	0.32363547103709	0.32363547103709
0.184424086382875	0.184424086382875	0.184424086382875	0.184424086382875	0.184424086382875	0.184424086382875
0.228680038616315	0.228680038616315	0.228680038616315	0.228680038616315	0.228680038616315	0.228680038616315
0.14149257648994	0.14149257648994	0.14149257648994	0.14149257648994	0.14149257648994	0.14149257648994
0.095207345439215	0.095207345439215	0.095207345439215	0.095207345439215	0.095207345439215	0.095207345439215
0.171113875199109	0.171113875199109	0.171113875199109	0.171113875199109	0.171113875199109	0.171113875199109
0.0765571061512458	0.0765571061512458	0.0765571061512458	0.0765571061512458	0.0765571061512458	0.0765571061512458
0.075085330959975	0.075085330959975	0.075085330959975	0.075085330959975	0.075085330959975	0.075085330959975
0.132267575144883	0.132267575144883	0.132267575144883	0.132267575144883	0.132267575144883	0.132267575144883
-0.00569501984329755	-0.00569501984329755	-0.00569501984329755	-0.00569501984329755	-0.00569501984329755	-0.00569501984329755
-0.0584990486936403	-0.0584990486936403	-0.0584990486936403	-0.0584990486936403	-0.0584990486936403	-0.0584990486936403
0.0550132380879827	0.0550132380879827	0.0550132380879827	0.0550132380879827	0.0550132380879827	0.0550132380879827
0.0660617172571297	0.0660617172571297	0.0660617172571297	0.0660617172571297	0.0660617172571297	0.0660617172571297
-0.0181569322547482	-0.0181569322547482	-0.0181569322547482	-0.0181569322547482	-0.0181569322547482	-0.0181569322547482
-0.0848068072913195	-0.0848068072913195	-0.0848068072913195	-0.0848068072913195	-0.0848068072913195	-0.0848068072913195
-0.10954380353181	-0.10954380353181	-0.10954380353181	-0.10954380353181	-0.10954380353181	-0.10954380353181
-0.0648867342510863	-0.0648867342510863	-0.0648867342510863	-0.0648867342510863	-0.0648867342510863	-0.0648867342510863
-0.170647929461931	-0.170647929461931	-0.170647929461931	-0.170647929461931	-0.170647929461931	-0.170647929461931
-0.0900564106585026	-0.0900564106585026	-0.0900564106585026	-0.0900564106585026	-0.0900564106585026	-0.0900564106585026
-0.0286758118162992	-0.0286758118162992	-0.0286758118162992	-0.0286758118162992	-0.0286758118162992	-0.0286758118162992
0.0459636989998661	0.0459636989998661	0.0459636989998661	0.0459636989998661	0.0459636989998661	0.0459636989998661
0.241960414995229	0.241960414995229	0.241960414995229	0.241960414995229	0.241960414995229	0.241960414995229
0.583779437452228	0.583779437452228	0.583779437452228	0.583779437452228	0.583779437452228	0.583779437452228
0.942988385949179	0.942988385949179	0.942988385949179	0.942988385949179	0.942988385949179	0.942988385949179
0.955005764789203	0.955005764789203	0.955005764789203	0.955005764789203	0.955005764789203	0.955005764789203
1.10262016456386	1.10262016456386	1.10262016456386	1.10262016456386	1.10262016456386	1.10262016456386
0.958419978530876	0.958419978530876	0.958419978530876	0.958419978530876	0.958419978530876	0.958419978530876
0.802059859521564	0.802059859521564	0.802059859521564	0.802059859521564	0.802059859521564	0.802059859521564
0.487579301894312	0.487579301894312	0.487579301894312	0.487579301894312	0.487579301894312	0.487579301894312
0.259299292687946	0.259299292687946	0.259299292687946	0.259299292687946	0.259299292687946	0.259299292687946
-0.0580656249377892	-0.0580656249377892	-0.0580656249377892	-0.0580656249377892	-0.0580656249377892	-0.0580656249377892
-0.0868054127553697	-0.0868054127553697	-0.0868054127553697	-0.0868054127553697	-0.0868054127553697	-0.0868054127553697
-0.325028420460789	-0.325028420460789	-0.325028420460789	-0.325028420460789	-0.325028420460789	-0.325028420460789
-0.274693063154166	-0.274693063154166	-0.274693063154166	-0.274693063154166	-0.274693063154166	-0.274693063154166
-0.260121999543364	-0.260121999543364	-0.260121999543364	-0.260121999543364	-0.260121999543364	-0.260121999543364
-0.138784629712793	-0.138784629712793	-0.138784629712793	-0.138784629712793	-0.138784629712793	-0.138784629712793
-0.1529952407543	-0.1529952407543	-0.1529952407543	-0.1529952407543	-0.1529952407543	-0.1529952407543
0.0143760703236748	0.0143760703236748	0.0143760703236748	0.0143760703236748	0.0143760703236748	0.0143760703236748
-0.119157022844874	-0.119157022844874	-0.119157022844874	-0.119157022844874	-0.119157022844874	-0.119157022844874
0.0256002615554913	0.0256002615554913	0.0256002615554913	0.0256002615554913	0.0256002615554913	0.0256002615554913
0.0898539407165576	0.0898539407165576	0.0898539407165576	0.0898539407165576	0.0898539407165576	0.0898539407165576
0.0710206233122778	0.0710206233122778	0.0710206233122778	0.0710206233122778	0.0710206233122778	0.0710206233122778
-0.00239420472680144	-0.00239420472680144	-0.00239420472680144	-0.00239420472680144	-0.00239420472680144	-0.00239420472680144
0.0785961706186172	0.0785961706186172	0.0785961706186172	0.0785961706186172	0.0785961706186172	0.0785961706186172
0.0995902803227258	0.0995902803227258	0.0995902803227258	0.0995902803227258	0.0995902803227258	0.0995902803227258
-0.0012118152692944	-0.0012118152692944	-0.0012118152692944	-0.0012118152692944	-0.0012118152692944	-0.0012118152692944
0.00224932708728942	0.00224932708728942	0.00224932708728942	0.00224932708728942	0.00224932708728942	0.00224932708728942
0.112153430179731	0.112153430179731	0.112153430179731	0.112153430179731	0.112153430179731	0.112153430179731
0.133246130369507	0.133246130369507	0.133246130369507	0.133246130369507	0.133246130369507	0.133246130369507
0.0771708902649423	0.0771708902649423	0.0771708902649423	0.0771708902649423	0.0771708902649423	0.0771708902649423
0.107119726282537	0.107119726282537	0.107119726282537	0.107119726282537	0.107119726282537	0.107119726282537
0.12862329581799	0.12862329581799	0.12862329581799	0.12862329581799	0.12862329581799	0.12862329581799
0.269559860332136	0.269559860332136	0.269559860332136	0.269559860332136	0.269559860332136	0.269559860332136
0.22697501176777	0.22697501176777	0.22697501176777	0.22697501176777	0.22697501176777	0.22697501176777
0.153524235117764	0.153524235117764	0.153524235117764	0.153524235117764	0.153524235117764	0.153524235117764
0.340239123186339	0.340239123186339	0.340239123186339	0.340239123186339	0.340239123186339	0.340239123186339
0.235819916320998	0.235819916320998	0.235819916320998	0.235819916320998	0.235819916320998	0.235819916320998
0.27361061887814	0.27361061887814	0.27361061887814	0.27361061887814	0.27361061887814	0.27361061887814
0.288611378158272	0.288611378158272	0.288611378158272	0.288611378158272	0.288611378158272	0.288611378158272
0.456968168585267	0.456968168585267	0.456968168585267	0.456968168585267	0.456968168585267	0.456968168585267
0.294584210339151	0.294584210339151	0.294584210339151	0.294584210339151	0.294584210339151	0.294584210339151
0.42926011167632	0.42926011167632	0.42926011167632	0.42926011167632	0.42926011167632	0.42926011167632
0.374125821950531	0.374125821950531	0.374125821950531	0.374125821950531	0.374125821950531	0.374125821950531
0.353971722239336	0.353971722239336	0.353971722239336	0.353971722239336	0.353971722239336	0.353971722239336
0.434956506827368	0.434956506827368	0.434956506827368	0.434956506827368	0.434956506827368	0.434956506827368
0.501850233629851	0.501850233629851	0.501850233629851	0.501850233629851	0.501850233629851	0.501850233629851
0.396390771615277	0.396390771615277	0.396390771615277	0.396390771615277	0.396390771615277	0.396390771615277
0.491152104342785	0.491152104342785	0.491152104342785	0.491152104342785	0.491152104342785	0.491152104342785
0.450848578379815	0.450848578379815	0.450848578379815	0.450848578379815	0.450848578379815	0.450848578379815
0.4159580833863	0.4159580833863	0.4159580833863	0.4159580833863	0.4159580833863	0.4159580833863
0.510429553022645	0.510429553022645	0.510429553022645	0.510429553022645	0.510429553022645	0.510429553022645
0.369666468714485	0.369666468714485	0.369666468714485	0.369666468714485	0.369666468714485	0.369666468714485
0.453471297055092	0.453471297055092	0.453471297055092	0.453471297055092	0.453471297055092	0.453471297055092
0.403856199785563	0.403856199785563	0.403856199785563	0.403856199785563	0.403856199785563	0.403856199785563
0.405772797419603	0.405772797419603	0.405772797419603	0.405772797419603	0.405772797419603	0.405772797419603
0.263575312496413	0.263575312496413	0.263575312496413	0.263575312496413	0.263575312496413	0.263575312496413
0.278643370853718	0.278643370853718	0.278643370853718	0.278643370853718	0.278643370853718	0.278643370853718
0.213314191713381	0.213314191713381	0.213314191713381	0.213314191713381	0.213314191713381	0.213314191713381
0.145334877515186	0.145334877515186	0.145334877515186	0.145334877515186	0.145334877515186	0.145334877515186
0.218731872886719	0.218731872886719	0.218731872886719	0.218731872886719	0.218731872886719	0.218731872886719
0.13612092663475	0.13612092663475	0.13612092663475	0.13612092663475	0.13612092663475	0.13612092663475
0.116731972561519	0.116731972561519	0.116731972561519	0.116731972561519	0.116731972561519	0.116731972561519
0.0698518664257367	0.0698518664257367	0.0698518664257367	0.0698518664257367	0.0698518664257367	0.0698518664257367
0.0466577901076283	0.0466577901076283	0.0466577901076283	0.0466577901076283	0.0466577901076283	0.0466577901076283
0.024240785520829	0.024240785520829	0.024240785520829	0.024240785520829	0.024240785520829	0.024240785520829
0.0614729746993895	0.0614729746993895	0.0614729746993895	0.0614729746993895	0.0614729746993895	0.0614729746993895
0.0667148329957541	0.0667148329957541	0.0667148329957541	0.0667148329957541	0.0667148329957541	0.0667148329957541
-0.028341036727475	-0.028341036727475	-0.028341036727475	-0.028341036727475	-0.028341036727475	-0.028341036727475
0.152493787104657	0.152493787104657	0.152493787104657	0.152493787104657	0.152493787104657	0.152493787104657
0.149277350275016	0.149277350275016	0.149277350275016	0.149277350275016	0.149277350275016	0.149277350275016
0.014050011333358	0.014050011333358	0.014050011333358	0.014050011333358	0.014050011333358	0.014050011333358
0.122220401270557	0.122220401270557	0.122220401270557	0.122220401270557	0.122220401270557	0.122220401270557
0.0579756188151465	0.0579756188151465	0.0579756188151465	0.0579756188151465	0.0579756188151465	0.0579756188151465
0.146722361712875	0.146722361712875	0.146722361712875	0.146722361712875	0.146722361712875	0.146722361712875
-0.0304460911575533	-0.0304460911575533	-0.0304460911575533	-0.0304460911575533	-0.0304460911575533	-0.0304460911575533
0.123579979975575	0.123579979975575	0.123579979975575	0.123579979975575	0.123579979975575	0.123579979975575
-0.00972344634515769	-0.00972344634515769	-0.00972344634515769	-0.00972344634515769	-0.00972344634515769	-0.00972344634515769
0.0737548490408399	0.0737548490408399	0.0737548490408399	0.0737548490408399	0.0737548490408399	0.0737548490408399
0.0195662900746711	0.0195662900746711	0.0195662900746711	0.0195662900746711	0.0195662900746711	0.0195662900746711
0.0895513968325599	0.0895513968325599	0.0895513968325599	0.0895513968325599	0.0895513968325599	0.0895513968325599
0.0939329323342634	0.0939329323342634	0.0939329323342634	0.0939329323342634	0.0939329323342634	0.0939329323342634
0.0930649667922473	0.0930649667922473	0.0930649667922473	0.0930649667922473	0.0930649667922473	0.0930649667922473
0.0854138741699007	0.0854138741699007	0.0854138741699007	0.0854138741699007	0.0854138741699007	0.0854138741699007
0.0291652696196393	0.0291652696196393	0.0291652696196393	0.0291652696196393	0.0291652696196393	0.0291652696196393
0.144361223007267	0.144361223007267	0.144361223007267	0.144361223007267	0.144361223007267	0.144361223007267
0.0747779937943359	0.0747779937943359	0.0747779937943359	0.0747779937943359	0.0747779937943359	0.0747779937943359
0.161628977087702	0.161628977087702	0.161628977087702	0.161628977087702	0.161628977087702	0.161628977087702
0.194445212202565	0.194445212202565	0.194445212202565	0.194445212202565	0.194445212202565	0.194445212202565
0.177277741035509	0.177277741035509	0.177277741035509	0.177277741035509	0.177277741035509	0.177277741035509
0.0379452667436888	0.0379452667436888	0.0379452667436888	0.0379452667436888	0.0379452667436888	0.0379452667436888
0.167580297686997	0.167580297686997	0.167580297686997	0.167580297686997	0.167580297686997	0.167580297686997
0.11126815470849	0.11126815470849	0.11126815470849	0.11126815470849	0.11126815470849	0.11126815470849
0.212474582089918	0.212474582089918	0.212474582089918	0.212474582089918	0.212474582089918	0.212474582089918
0.298265030627725	0.298265030627725	0.298265030627725	0.298265030627725	0.298265030627725	0.298265030627725
0.173824028559143	0.173824028559143	0.173824028559143	0.173824028559143	0.173824028559143	0.173824028559143
0.162094449359921	0.162094449359921	0.162094449359921	0.162094449359921	0.162094449359921	0.162094449359921
0.291121283394877	0.291121283394877	0.291121283394877	0.291121283394877	0.291121283394877	0.291121283394877
0.233408122744194	0.233408122744194	0.233408122744194	0.233408122744194	0.233408122744194	0.233408122744194
0.38533302172435	0.38533302172435	0.38533302172435	0.38533302172435	0.38533302172435	0.38533302172435
0.237316656304784	0.237316656304784	0.237316656304784	0.237316656304784	0.237316656304784	0.237316656304784
0.331381309201901	0.331381309201901	0.331381309201901	0.331381309201901	0.331381309201901	0.331381309201901
0.234690652219353	0.234690652219353	0.234690652219353	0.234690652219353	0.234690652219353	0.234690652219353
0.308917196339263	0.308917196339263	0.308917196339263	0.308917196339263	0.308917196339263	0.308917196339263
0.393358915228199	0.393358915228199	0.393358915228199	0.393358915228199	0.393358915228199	0.393358915228199
0.354872328877585	0.354872328877585	0.354872328877585	0.354872328877585	0.354872328877585	0.354872328877585
0.337717362453635	0.337717362453635	0.337717362453635	0.337717362453635	0.337717362453635	0.337717362453635
0.319450431170132	0.319450431170132	0.319450431170132	0.319450431170132	0.319450431170132	0.319450431170132
0.234633034049206	0.234633034049206	0.234633034049206	0.234633034049206	0.234633034049206	0.234633034049206
0.28173997718352	0.28173997718352	0.28173997718352	0.28173997718352	0.28173997718352	0.28173997718352
0.251182380456797	0.251182380456797	0.251182380456797	0.251182380456797	0.251182380456797	0.251182380456797
0.228978954080827	0.228978954080827	0.228978954080827	0.228978954080827	0.228978954080827	0.228978954080827
0.0719896169154446	0.0719896169154446	0.0719896169154446	0.0719896169154446	0.0719896169154446	0.0719896169154446
0.0739696036545044	0.0739696036545044	0.0739696036545044	0.0739696036545044	0.0739696036545044	0.0739696036545044
0.0301494611667438	0.0301494611667438	0.0301494611667438	0.0301494611667438	0.0301494611667438	0.0301494611667438
0.141507661854968	0.141507661854968	0.141507661854968	0.141507661854968	0.141507661854968	0.141507661854968
0.141303135986044	0.141303135986044	0.141303135986044	0.141303135986044	0.141303135986044	0.141303135986044
-0.00227261043944377	-0.00227261043944377	-0.00227261043944377	-0.00227261043944377	-0.00227261043944377	-0.00227261043944377
0.0529231144689562	0.0529231144689562	0.0529231144689562	0.0529231144689562	0.0529231144689562	0.0529231144689562
0.00950822693185098	0.00950822693185098	0.00950822693185098	0.00950822693185098	0.00950822693185098	0.00950822693185098
0.0522888544884534	0.0522888544884534	0.0522888544884534	0.0522888544884534	0.0522888544884534	0.0522888544884534
-0.0927722896336083	-0.0927722896336083	-0.0927722896336083	-0.0927722896336083	-0.0927722896336083	-0.0927722896336083
-0.193795422821413	-0.193795422821413	-0.193795422821413	-0.193795422821413	-0.193795422821413	-0.193795422821413
-0.0247980574136114	-0.0247980574136114	-0.0247980574136114	-0.0247980574136114	-0.0247980574136114	-0.0247980574136114
0.0167486516954049	0.0167486516954049	0.0167486516954049	0.0167486516954049	0.0167486516954049	0.0167486516954049
0.00314628717177676	0.00314628717177676	0.00314628717177676	0.00314628717177676	0.00314628717177676	0.00314628717177676
0.129820187073754	0.129820187073754	0.129820187073754	0.129820187073754	0.129820187073754	0.129820187073754
0.319785993200814	0.319785993200814	0.319785993200814	0.319785993200814	0.319785993200814	0.319785993200814
0.558203528586676	0.558203528586676	0.558203528586676	0.558203528586676	0.558203528586676	0.558203528586676
0.813153171126372	0.813153171126372	0.813153171126372	0.813153171126372	0.813153171126372	0.813153171126372
1.13799047527415	1.13799047527415	1.13799047527415	1.13799047527415	1.13799047527415	1.13799047527415
1.10054979728617	1.10054979728617	1.10054979728617	1.10054979728617	1.10054979728617	1.10054979728617
1.14998850988492	1.14998850988492	1.14998850988492	1.14998850988492	1.14998850988492	1.14998850988492
0.75777214091509	0.75777214091509	0.75777214091509	0.75777214091509	0.75777214091509	0.75777214091509
0.654359072699936	0.654359072699936	0.654359072699936	0.654359072699936	0.654359072699936	0.654359072699936
0.29276637835339	0.29276637835339	0.29276637835339	0.29276637835339	0.29276637835339	0.29276637835339
0.00153883100018214	0.00153883100018214	0.00153883100018214	0.00153883100018214	0.00153883100018214	0.00153883100018214
-0.0971088980479059	-0.0971088980479059	-0.0971088980479059	-0.0971088980479059	-0.0971088980479059	-0.0971088980479059
-0.267480845663566	-0.267480845663566	-0.267480845663566	-0.267480845663566	-0.267480845663566	-0.267480845663566
-0.299586875089697	-0.299586875089697	-0.299586875089697	-0.299586875089697	-0.299586875089697	-0.299586875089697
-0.195687912067434	-0.195687912067434	-0.195687912067434	-0.195687912067434	-0.195687912067434	-0.195687912067434
-0.18828164633137	-0.18828164633137	-0.18828164633137	-0.18828164633137	-0.18828164633137	-0.18828164633137
-0.128987044096991	-0.128987044096991	-0.128987044096991	-0.128987044096991	-0.128987044096991	-0.128987044096991
-0.0725308139234733	-0.0725308139234733	-0.0725308139234733	-0.0725308139234733	-0.0725308139234733	-0.0725308139234733
-0.0211511700023722	-0.0211511700023722	-0.0211511700023722	-0.0211511700023722	-0.0211511700023722	-0.0211511700023722
-0.0339322299927217	-0.0339322299927217	-0.0339322299927217	-0.0339322299927217	-0.0339322299927217	-0.0339322299927217
-0.0367412938020073	-0.0367412938020073	-0.0367412938020073	-0.0367412938020073	-0.0367412938020073	-0.0367412938020073
0.0653580627365564	0.0653580627365564	0.0653580627365564	0.0653580627365564	0.0653580627365564	0.0653580627365564
-0.0136501940307739	-0.0136501940307739	-0.0136501940307739	-0.0136501940307739	-0.0136501940307739	-0.0136501940307739
0.106459501670462	0.106459501670462	0.106459501670462	0.106459501670462	0.106459501670462	0.106459501670462
0.182067174632364	0.182067174632364	0.182067174632364	0.182067174632364	0.182067174632364	0.182067174632364
0.123611533489337	0.123611533489337	0.123611533489337	0.123611533489337	0.123611533489337	0.123611533489337
0.186077699296502	0.186077699296502	0.186077699296502	0.186077699296502	0.186077699296502	0.186077699296502
0.216990132522504	0.216990132522504	0.216990132522504	0.216990132522504	0.216990132522504	0.216990132522504
0.224495081815178	0.224495081815178	0.224495081815178	0.224495081815178	0.224495081815178	0.224495081815178
0.203999372828399	0.203999372828399	0.203999372828399	0.203999372828399	0.203999372828399	0.203999372828399
0.167452303393199	0.167452303393199	0.167452303393199	0.167452303393199	0.167452303393199	0.167452303393199
0.265301105110927	0.265301105110927	0.265301105110927	0.265301105110927	0.265301105110927	0.265301105110927
0.175368927046663	0.175368927046663	0.175368927046663	0.175368927046663	0.175368927046663	0.175368927046663
0.33992191974539	0.33992191974539	0.33992191974539	0.33992191974539	0.33992191974539	0.33992191974539
0.259820039220831	0.259820039220831	0.259820039220831	0.259820039220831	0.259820039220831	0.259820039220831
0.400422851776499	0.400422851776499	0.400422851776499	0.400422851776499	0.400422851776499	0.400422851776499
0.337560496354544	0.337560496354544	0.337560496354544	0.337560496354544	0.337560496354544	0.337560496354544
0.294346994123864	0.294346994123864	0.294346994123864	0.294346994123864	0.294346994123864	0.294346994123864
0.447001363854079	0.447001363854079	0.447001363854079	0.447001363854079	0.447001363854079	0.447001363854079
0.460694777292693	0.460694777292693	0.460694777292693	0.460694777292693	0.460694777292693	0.460694777292693
0.468708955959426	0.468708955959426	0.468708955959426	0.468708955959426	0.468708955959426	0.468708955959426
0.353820468120226	0.353820468120226	0.353820468120226	0.353820468120226	0.353820468120226	0.353820468120226
0.513157893254908	0.513157893254908	0.513157893254908	0.513157893254908	0.513157893254908	0.513157893254908
0.517041823199057	0.517041823199057	0.517041823199057	0.517041823199057	0.517041823199057	0.517041823199057
0.442884055030867	0.442884055030867	0.442884055030867	0.442884055030867	0.442884055030867	0.442884055030867
0.492998844490239	0.492998844490239	0.492998844490239	0.492998844490239	0.492998844490239	0.492998844490239
0.551591462021992	0.551591462021992	0.551591462021992	0.551591462021992	0.551591462021992	0.551591462021992
0.455875774360017	0.455875774360017	0.455875774360017	0.455875774360017	0.455875774360017	0.455875774360017
0.499679365230151	0.499679365230151	0.499679365230151	0.499679365230151	0.499679365230151	0.499679365230151
0.521520589159683	0.521520589159683	0.521520589159683	0.521520589159683	0.521520589159683	0.521520589159683
0.421932487236311	0.421932487236311	0.421932487236311	0.421932487236311	0.421932487236311	0.421932487236311
0.418914446626459	0.418914446626459	0.418914446626459	0.418914446626459	0.418914446626459	0.418914446626459
0.499648756154296	0.499648756154296	0.499648756154296	0.499648756154296	0.499648756154296	0.499648756154296
0.43616070344647	0.43616070344647	0.43616070344647	0.43616070344647	0.43616070344647	0.43616070344647
0.277028634830343	0.277028634830343	0.277028634830343	0.277028634830343	0.277028634830343	0.277028634830343
0.424402911339342	0.424402911339342	0.424402911339342	0.424402911339342	0.424402911339342	0.424402911339342
0.36181575137817	0.36181575137817	0.36181575137817	0.36181575137817	0.36181575137817	0.36181575137817
0.301319972437867	0.301319972437867	0.301319972437867	0.301319972437867	0.301319972437867	0.301319972437867
0.346031005500382	0.346031005500382	0.346031005500382	0.346031005500382	0.346031005500382	0.346031005500382
0.169248649485301	0.169248649485301	0.169248649485301	0.169248649485301	0.169248649485301	0.169248649485301
0.144674459653909	0.144674459653909	0.144674459653909	0.144674459653909	0.144674459653909	0.144674459653909
0.147110151387415	0.147110151387415	0.147110151387415	0.147110151387415	0.147110151387415	0.147110151387415
0.156405592713883	0.156405592713883	0.156405592713883	0.156405592713883	0.156405592713883	0.156405592713883
0.149429675360974	0.149429675360974	0.149429675360974	0.149429675360974	0.149429675360974	0.149429675360974
0.223019189825285	0.223019189825285	0.223019189825285	0.223019189825285	0.223019189825285	0.223019189825285
0.107746680801077	0.107746680801077	0.107746680801077	0.107746680801077	0.107746680801077	0.107746680801077
0.163959427259294	0.163959427259294	0.163959427259294	0.163959427259294	0.163959427259294	0.163959427259294
0.171456630232444	0.171456630232444	0.171456630232444	0.171456630232444	0.171456630232444	0.171456630232444
0.0193895319227745	0.0193895319227745	0.0193895319227745	0.0193895319227745	0.0193895319227745	0.0193895319227745
0.115743240579202	0.115743240579202	0.115743240579202	0.115743240579202	0.115743240579202	0.115743240579202
0.0571195409426693	0.0571195409426693	0.0571195409426693	0.0571195409426693	0.0571195409426693	0.0571195409426693
0.015754807514806	0.015754807514806	0.015754807514806	0.015754807514806	0.015754807514806	0.015754807514806
-0.00627991798793708	-0.00627991798793708	-0.00627991798793708	-0.00627991798793708	-0.00627991798793708	-0.00627991798793708
0.172482463677866	0.172482463677866	0.172482463677866	0.172482463677866	0.172482463677866	0.172482463677866
0.148064248932621	0.148064248932621	0.148064248932621	0.148064248932621	0.148064248932621	0.148064248932621
0.133388956111398	0.133388956111398	0.133388956111398	0.133388956111398	0.133388956111398	0.133388956111398
0.0334893610286674	0.0334893610286674	0.0334893610286674	0.0334893610286674	0.0334893610286674	0.0334893610286674
-0.00886386296292883	-0.00886386296292883	-0.00886386296292883	-0.00886386296292883	-0.00886386296292883	-0.00886386296292883
0.118424290405861	0.118424290405861	0.118424290405861	0.118424290405861	0.118424290405861	0.118424290405861
0.111520967915619	0.111520967915619	0.111520967915619	0.111520967915619	0.111520967915619	0.111520967915619
0.145053121695825	0.145053121695825	0.145053121695825	0.145053121695825	0.145053121695825	0.145053121695825
0.161443492136368	0.161443492136368	0.161443492136368	0.161443492136368	0.161443492136368	0.161443492136368
0.164418185557805	0.164418185557805	0.164418185557805	0.164418185557805	0.164418185557805	0.164418185557805
0.0949136241975293	0.0949136241975293	0.0949136241975293	0.0949136241975293	0.0949136241975293	0.0949136241975293
0.0222519299298255	0.0222519299298255	0.0222519299298255	0.0222519299298255	0.0222519299298255	0.0222519299298255
0.184075527991097	0.184075527991097	0.184075527991097	0.184075527991097	0.184075527991097	0.184075527991097
0.100225147892338	0.100225147892338	0.100225147892338	0.100225147892338	0.100225147892338	0.100225147892338
0.0361398910798346	0.0361398910798346	0.0361398910798346	0.0361398910798346	0.0361398910798346	0.0361398910798346
0.0814447824767309	0.0814447824767309	0.0814447824767309	0.0814447824767309	0.0814447824767309	0.0814447824767309
0.119929517273141	0.119929517273141	0.119929517273141	0.119929517273141	0.119929517273141	0.119929517273141
0.17766299054112	0.17766299054112	0.17766299054112	0.17766299054112	0.17766299054112	0.17766299054112
0.22934605727416	0.22934605727416	0.22934605727416	0.22934605727416	0.22934605727416	0.22934605727416
0.291831627234115	0.291831627234115	0.291831627234115	0.291831627234115	0.291831627234115	0.291831627234115
0.269824424029634	0.269824424029634	0.269824424029634	0.269824424029634	0.269824424029634	0.269824424029634
0.222506119365462	0.222506119365462	0.222506119365462	0.222506119365462	0.222506119365462	0.222506119365462
0.348504818344723	0.348504818344723	0.348504818344723	0.348504818344723	0.348504818344723	0.348504818344723
0.373375549728045	0.373375549728045	0.373375549728045	0.373375549728045	0.373375549728045	0.373375549728045
0.213296340962137	0.213296340962137	0.213296340962137	0.213296340962137	0.213296340962137	0.213296340962137
0.301443509266032	0.301443509266032	0.301443509266032	0.301443509266032	0.301443509266032	0.301443509266032
0.395553936199026	0.395553936199026	0.395553936199026	0.395553936199026	0.395553936199026	0.395553936199026
0.326001752737214	0.326001752737214	0.326001752737214	0.326001752737214	0.326001752737214	0.326001752737214
0.421756073234206	0.421756073234206	0.421756073234206	0.421756073234206	0.421756073234206	0.421756073234206
0.366195101137975	0.366195101137975	0.366195101137975	0.366195101137975	0.366195101137975	0.366195101137975
0.320935490987627	0.320935490987627	0.320935490987627	0.320935490987627	0.320935490987627	0.320935490987627
0.355597148060063	0.355597148060063	0.355597148060063	0.355597148060063	0.355597148060063	0.355597148060063
0.388380225139052	0.388380225139052	0.388380225139052	0.388380225139052	0.388380225139052	0.388380225139052
0.361951753161039	0.361951753161039	0.361951753161039	0.361951753161039	0.361951753161039	0.361951753161039
0.184456196815366	0.184456196815366	0.184456196815366	0.184456196815366	0.184456196815366	0.184456196815366
0.296899793770732	0.296899793770732	0.296899793770732	0.296899793770732	0.296899793770732	0.296899793770732
0.274997277275992	0.274997277275992	0.274997277275992	0.274997277275992	0.274997277275992	0.274997277275992
0.278078960898595	0.278078960898595	0.278078960898595	0.278078960898595	0.278078960898595	0.278078960898595
0.221586509083132	0.221586509083132	0.221586509083132	0.221586509083132	0.221586509083132	0.221586509083132
0.141827973500717	0.141827973500717	0.141827973500717	0.141827973500717	0.141827973500717	0.141827973500717
0.170624900121856	0.170624900121856	0.170624900121856	0.170624900121856	0.170624900121856	0.170624900121856
0.06713153883658	0.06713153883658	0.06713153883658	0.06713153883658	0.06713153883658	0.06713153883658
0.160284206332866	0.160284206332866	0.160284206332866	0.160284206332866	0.160284206332866	0.160284206332866
-0.00584440475381627	-0.00584440475381627	-0.00584440475381627	-0.00584440475381627	-0.00584440475381627	-0.00584440475381627
0.00226086547418248	0.00226086547418248	0.00226086547418248	0.00226086547418248	0.00226086547418248	0.00226086547418248
0.00489319232054525	0.00489319232054525	0.00489319232054525	0.00489319232054525	0.00489319232054525	0.00489319232054525
0.0491976072943826	0.0491976072943826	0.0491976072943826	0.0491976072943826	0.0491976072943826	0.0491976072943826
0.0206493067110882	0.0206493067110882	0.0206493067110882	0.0206493067110882	0.0206493067110882	0.0206493067110882
-0.188703553870836	-0.188703553870836	-0.188703553870836	-0.188703553870836	-0.188703553870836	-0.188703553870836
-0.114947171838494	-0.114947171838494	-0.114947171838494	-0.114947171838494	-0.114947171838494	-0.114947171838494
-0.161817719505798	-0.161817719505798	-0.161817719505798	-0.161817719505798	-0.161817719505798	-0.161817719505798
0.00478873507796999	0.00478873507796999	0.00478873507796999	0.00478873507796999	0.00478873507796999	0.00478873507796999
0.196707757431857	0.196707757431857	0.196707757431857	0.196707757431857	0.196707757431857	0.196707757431857
0.429091315336004	0.429091315336004	0.429091315336004	0.429091315336004	0.429091315336004	0.429091315336004
0.622788447270703	0.622788447270703	0.622788447270703	0.622788447270703	0.622788447270703	0.622788447270703
0.98809055715604	0.98809055715604	0.98809055715604	0.98809055715604	0.98809055715604	0.98809055715604
1.10283010973172	1.10283010973172	1.10283010973172	1.10283010973172	1.10283010973172	1.10283010973172
1.2097968626601	1.2097968626601	1.2097968626601	1.2097968626601	1.2097968626601	1.2097968626601
1.06914356086976	1.06914356086976	1.06914356086976	1.06914356086976	1.06914356086976	1.06914356086976
0.86896604132753	0.86896604132753	0.86896604132753	0.86896604132753	0.86896604132753	0.86896604132753
0.662467743859561	0.662467743859561	0.662467743859561	0.662467743859561	0.662467743859561	0.662467743859561
0.260829209578162	0.260829209578162	0.260829209578162	0.260829209578162	0.260829209578162	0.260829209578162
0.0837248673044232	0.0837248673044232	0.0837248673044232	0.0837248673044232	0.0837248673044232	0.0837248673044232
-0.0722715575921258	-0.0722715575921258	-0.0722715575921258	-0.0722715575921258	-0.0722715575921258	-0.0722715575921258
-0.108014874777847	-0.108014874777847	-0.108014874777847	-0.108014874777847	-0.108014874777847	-0.108014874777847
-0.177268656402871	-0.177268656402871	-0.177268656402871	-0.177268656402871	-0.177268656402871	-0.177268656402871
-0.165722176334134	-0.165722176334134	-0.165722176334134	-0.165722176334134	-0.165722176334134	-0.165722176334134
-0.146884680072846	-0.146884680072846	-0.146884680072846	-0.146884680072846	-0.146884680072846	-0.146884680072846
-0.0538645874609536	-0.0538645874609536	-0.0538645874609536	-0.0538645874609536	-0.0538645874609536	-0.0538645874609536
0.0632966953684671	0.0632966953684671	0.0632966953684671	0.0632966953684671	0.0632966953684671	0.0632966953684671
-0.0142276631110274	-0.0142276631110274	-0.0142276631110274	-0.0142276631110274	-0.0142276631110274	-0.0142276631110274
0.017861414398817	0.017861414398817	0.017861414398817	0.017861414398817	0.017861414398817	0.017861414398817
0.045000132007423	0.045000132007423	0.045000132007423	0.045000132007423	0.045000132007423	0.045000132007423
-0.0226325620396361	-0.0226325620396361	-0.0226325620396361	-0.0226325620396361	-0.0226325620396361	-0.0226325620396361
0.0823689728452847	0.0823689728452847	0.0823689728452847	0.0823689728452847	0.0823689728452847	0.0823689728452847
0.145046825446228	0.145046825446228	0.145046825446228	0.145046825446228	0.145046825446228	0.145046825446228
-0.000925852326407781	-0.000925852326407781	-0.000925852326407781	-0.000925852326407781	-0.000925852326407781	-0.000925852326407781
0.137413067486674	0.137413067486674	0.137413067486674	0.137413067486674	0.137413067486674	0.137413067486674
0.0367717124344215	0.0367717124344215	0.0367717124344215	0.0367717124344215	0.0367717124344215	0.0367717124344215
0.150367002433593	0.150367002433593	0.150367002433593	0.150367002433593	0.150367002433593	0.150367002433593
0.160540382732297	0.160540382732297	0.160540382732297	0.160540382732297	0.160540382732297	0.160540382732297
0.159056863015761	0.159056863015761	0.159056863015761	0.159056863015761	0.159056863015761	0.159056863015761
0.173436529835614	0.173436529835614	0.173436529835614	0.173436529835614	0.173436529835614	0.173436529835614
0.185951430692633	0.185951430692633	0.185951430692633	0.185951430692633	0.185951430692633	0.185951430692633
0.290836957590435	0.290836957590435	0.290836957590435	0.290836957590435	0.290836957590435	0.290836957590435
0.160515003645291	0.160515003645291	0.160515003645291	0.160515003645291	0.160515003645291	0.160515003645291
0.302746230394559	0.302746230394559	0.302746230394559	0.302746230394559	0.302746230394559	0.302746230394559
0.360796390427344	0.360796390427344	0.360796390427344	0.360796390427344	0.360796390427344	0.360796390427344
0.346262024715531	0.346262024715531	0.346262024715531	0.346262024715531	0.346262024715531	0.346262024715531
0.34659188950701	0.34659188950701	0.34659188950701	0.34659188950701	0.34659188950701	0.34659188950701
0.436173975226608	0.436173975226608	0.436173975226608	0.436173975226608	0.436173975226608	0.436173975226608
0.458584551270474	0.458584551270474	0.458584551270474	0.458584551270474	0.458584551270474	0.458584551270474
0.344655722479973	0.344655722479973	0.344655722479973	0.344655722479973	0.344655722479973	0.344655722479973
0.500840367035703	0.500840367035703	0.500840367035703	0.500840367035703	0.500840367035703	0.500840367035703
0.392935203086245	0.392935203086245	0.392935203086245	0.392935203086245	0.392935203086245	0.392935203086245
0.374702232587238	0.374702232587238	0.374702232587238	0.374702232587238	0.374702232587238	0.374702232587238
0.354366314754816	0.354366314754816	0.354366314754816	0.354366314754816	0.354366314754816	0.354366314754816
0.3697979438829	0.3697979438829	0.3697979438829	0.3697979438829	0.3697979438829	0.3697979438829
0.498447326523085	0.498447326523085	0.498447326523085	0.498447326523085	0.498447326523085	0.498447326523085
0.475095399100436	0.475095399100436	0.475095399100436	0.475095399100436	0.475095399100436	0.475095399100436
0.430324364552771	0.430324364552771	0.430324364552771	0.430324364552771	0.430324364552771	0.430324364552771
0.467783334498756	0.467783334498756	0.467783334498756	0.467783334498756	0.467783334498756	0.467783334498756
0.51219846246364	0.51219846246364	0.51219846246364	0.51219846246364	0.51219846246364	0.51219846246364
0.340155305820019	0.340155305820019	0.340155305820019	0.340155305820019	0.340155305820019	0.340155305820019
0.378017485176427	0.378017485176427	0.378017485176427	0.378017485176427	0.378017485176427	0.378017485176427
0.412251707948067	0.412251707948067	0.412251707948067	0.412251707948067	0.412251707948067	0.412251707948067
0.290490413782103	0.290490413782103	0.290490413782103	0.290490413782103	0.290490413782103	0.290490413782103
0.301205597829665	0.301205597829665	0.301205597829665	0.301205597829665	0.301205597829665	0.301205597829665
0.388805388489161	0.388805388489161	0.388805388489161	0.388805388489161	0.388805388489161	0.388805388489161
0.229944558104409	0.229944558104409	0.229944558104409	0.229944558104409	0.229944558104409	0.229944558104409
0.236729441061818	0.236729441061818	0.236729441061818	0.236729441061818	0.236729441061818	0.236729441061818
0.184366832747508	0.184366832747508	0.184366832747508	0.184366832747508	0.184366832747508	0.184366832747508
0.170537938006651	0.170537938006651	0.170537938006651	0.170537938006651	0.170537938006651	0.170537938006651
0.150169803981564	0.150169803981564	0.150169803981564	0.150169803981564	0.150169803981564	0.150169803981564
0.14365712175972	0.14365712175972	0.14365712175972	0.14365712175972	0.14365712175972	0.14365712175972
0.194152946384089	0.194152946384089	0.194152946384089	0.194152946384089	0.194152946384089	0.194152946384089
0.0522733785733646	0.0522733785733646	0.0522733785733646	0.0522733785733646	0.0522733785733646	0.0522733785733646
0.166297023045681	0.166297023045681	0.166297023045681	0.166297023045681	0.166297023045681	0.166297023045681
0.0819855564692503	0.0819855564692503	0.0819855564692503	0.0819855564692503	0.0819855564692503	0.0819855564692503
0.130836762423213	0.130836762423213	0.130836762423213	0.130836762423213	0.130836762423213	0.130836762423213
0.0961345801949995	0.0961345801949995	0.0961345801949995	0.0961345801949995	0.0961345801949995	0.0961345801949995
0.0555128847262502	0.0555128847262502	0.0555128847262502	0.0555128847262502	0.0555128847262502	0.0555128847262502
-0.0112860561788895	-0.0112860561788895	-0.0112860561788895	-0.0112860561788895	-0.0112860561788895	-0.0112860561788895
0.132521983050467	0.132521983050467	0.132521983050467	0.132521983050467	0.132521983050467	0.132521983050467
0.136913410952192	0.136913410952192	0.136913410952192	0.136913410952192	0.136913410952192	0.136913410952192
0.128322724480249	0.128322724480249	0.128322724480249	0.128322724480249	0.128322724480249	0.128322724480249
0.103572301440182	0.103572301440182	0.103572301440182	0.103572301440182	0.103572301440182	0.103572301440182
0.0768945939567228	0.0768945939567228	0.0768945939567228	0.0768945939567228	0.0768945939567228	0.0768945939567228
0.00306859330902683	0.00306859330902683	0.00306859330902683	0.00306859330902683	0.00306859330902683	0.00306859330902683
0.0261824085840896	0.0261824085840896	0.0261824085840896	0.0261824085840896	0.0261824085840896	0.0261824085840896
-0.0375809629696644	-0.0375809629696644	-0.0375809629696644	-0.0375809629696644	-0.0375809629696644	-0.0375809629696644
0.0741690431912357	0.0741690431912357	0.0741690431912357	0.0741690431912357	0.0741690431912357	0.0741690431912357
-0.0358830213050477	-0.0358830213050477	-0.0358830213050477	-0.0358830213050477	-0.0358830213050477	-0.0358830213050477
0.0441842987416937	0.0441842987416937	0.0441842987416937	0.0441842987416937	0.0441842987416937	0.0441842987416937
0.157772807565065	0.157772807565065	0.157772807565065	0.157772807565065	0.157772807565065	0.157772807565065
0.121362205378199	0.121362205378199	0.121362205378199	0.121362205378199	0.121362205378199	0.121362205378199
0.073404639496882	0.073404639496882	0.073404639496882	0.073404639496882	0.073404639496882	0.073404639496882
0.0564650781759224	0.0564650781759224	0.0564650781759224	0.0564650781759224	0.0564650781759224	0.0564650781759224
0.170221682591763	0.170221682591763	0.170221682591763	0.170221682591763	0.170221682591763	0.170221682591763
0.0364344513487296	0.0364344513487296	0.0364344513487296	0.0364344513487296	0.0364344513487296	0.0364344513487296
0.081396851030294	0.081396851030294	0.081396851030294	0.081396851030294	0.081396851030294	0.081396851030294
0.123044203391754	0.123044203391754	0.123044203391754	0.123044203391754	0.123044203391754	0.123044203391754
0.0658473398438305	0.0658473398438305	0.0658473398438305	0.0658473398438305	0.0658473398438305	0.0658473398438305
0.163940677574109	0.163940677574109	0.163940677574109	0.163940677574109	0.163940677574109	0.163940677574109
0.0918800977047797	0.0918800977047797	0.0918800977047797	0.0918800977047797	0.0918800977047797	0.0918800977047797
0.0965365874810008	0.0965365874810008	0.0965365874810008	0.0965365874810008	0.0965365874810008	0.0965365874810008
0.268930678237154	0.268930678237154	0.268930678237154	0.268930678237154	0.268930678237154	0.268930678237154
0.253268998608287	0.253268998608287	0.253268998608287	0.253268998608287	0.253268998608287	0.253268998608287
0.248508081045671	0.248508081045671	0.248508081045671	0.248508081045671	0.248508081045671	0.248508081045671
0.293104085630602	0.293104085630602	0.293104085630602	0.293104085630602	0.293104085630602	0.293104085630602
0.302080854334442	0.302080854334442	0.302080854334442	0.302080854334442	0.302080854334442	0.302080854334442
0.237594242468785	0.237594242468785	0.237594242468785	0.237594242468785	0.237594242468785	0.237594242468785
0.289804670839922	0.289804670839922	0.289804670839922	0.289804670839922	0.289804670839922	0.289804670839922
0.417384583241244	0.417384583241244	0.417384583241244	0.417384583241244	0.417384583241244	0.417384583241244
0.239467262520783	0.239467262520783	0.239467262520783	0.239467262520783	0.239467262520783	0.239467262520783
0.313024476810117	0.313024476810117	0.313024476810117	0.313024476810117	0.313024476810117	0.313024476810117
0.30725108203221	0.30725108203221	0.30725108203221	0.30725108203221	0.30725108203221	0.30725108203221
0.306536050571777	0.306536050571777	0.306536050571777	0.306536050571777	0.306536050571777	0.306536050571777
0.301500581718929	0.301500581718929	0.301500581718929	0.301500581718929	0.301500581718929	0.301500581718929
0.216211841870386	0.216211841870386	0.216211841870386	0.216211841870386	0.216211841870386	0.216211841870386
0.210168875064745	0.210168875064745	0.210168875064745	0.210168875064745	0.210168875064745	0.210168875064745
0.160675662227158	0.160675662227158	0.160675662227158	0.160675662227158	0.160675662227158	0.160675662227158
0.170079927572015	0.170079927572015	0.170079927572015	0.170079927572015	0.170079927572015	0.170079927572015
0.170942111334759	0.170942111334759	0.170942111334759	0.170942111334759	0.170942111334759	0.170942111334759
0.0606525592895452	0.0606525592895452	0.0606525592895452	0.0606525592895452	0.0606525592895452	0.0606525592895452
0.0508645748173042	0.0508645748173042	0.0508645748173042	0.0508645748173042	0.0508645748173042	0.0508645748173042
0.136099498515442	0.136099498515442	0.136099498515442	0.136099498515442	0.136099498515442	0.136099498515442
0.0629051533986669	0.0629051533986669	0.0629051533986669	0.0629051533986669	0.0629051533986669	0.0629051533986669
-0.0130586127388916	-0.0130586127388916	-0.0130586127388916	-0.0130586127388916	-0.0130586127388916	-0.0130586127388916
0.0476012179859985	0.0476012179859985	0.0476012179859985	0.0476012179859985	0.0476012179859985	0.0476012179859985
-0.0432296203357279	-0.0432296203357279	-0.0432296203357279	-0.0432296203357279	-0.0432296203357279	-0.0432296203357279
-0.00848688435144355	-0.00848688435144355	-0.00848688435144355	-0.00848688435144355	-0.00848688435144355	-0.00848688435144355
-0.0397664458376947	-0.0397664458376947	-0.0397664458376947	-0.0397664458376947	-0.0397664458376947	-0.0397664458376947
-0.180668324637016	-0.180668324637016	-0.180668324637016	-0.180668324637016	-0.180668324637016	-0.180668324637016
-0.195194574552807	-0.195194574552807	-0.195194574552807	-0.195194574552807	-0.195194574552807	-0.195194574552807
-0.0994574147037816	-0.0994574147037816	-0.0994574147037816	-0.0994574147037816	-0.0994574147037816	-0.0994574147037816
-0.0565273742173301	-0.0565273742173301	-0.0565273742173301	-0.0565273742173301	-0.0565273742173301	-0.0565273742173301
0.0924161184197435	0.0924161184197435	0.0924161184197435	0.0924161184197435	0.0924161184197435	0.0924161184197435
0.372071637281732	0.372071637281732	0.372071637281732	0.372071637281732	0.372071637281732	0.372071637281732
0.714999018991752	0.714999018991752	0.714999018991752	0.714999018991752	0.714999018991752	0.714999018991752
0.901128040751832	0.901128040751832	0.901128040751832	0.901128040751832	0.901128040751832	0.901128040751832
1.12757905616708	1.12757905616708	1.12757905616708	1.12757905616708	1.12757905616708	1.12757905616708
1.12792639564743	1.12792639564743	1.12792639564743	1.12792639564743	1.12792639564743	1.12792639564743
1.01430679134776	1.01430679134776	1.01430679134776	1.01430679134776	1.01430679134776	1.01430679134776
0.766577727405908	0.766577727405908	0.766577727405908	0.766577727405908	0.766577727405908	0.766577727405908
0.448081754207988	0.448081754207988	0.448081754207988	0.448081754207988	0.448081754207988	0.448081754207988
0.291848483694109	0.291848483694109	0.291848483694109	0.291848483694109	0.291848483694109	0.291848483694109
-0.0154627712278971	-0.0154627712278971	-0.0154627712278971	-0.0154627712278971	-0.0154627712278971	-0.0154627712278971
-0.192037498443689	-0.192037498443689	-0.192037498443689	-0.192037498443689	-0.192037498443689	-0.192037498443689
-0.292036445406652	-0.292036445406652	-0.292036445406652	-0.292036445406652	-0.292036445406652	-0.292036445406652
-0.348367467316404	-0.348367467316404	-0.348367467316404	-0.348367467316404	-0.348367467316404	-0.348367467316404
-0.220516310754927	-0.220516310754927	-0.220516310754927	-0.220516310754927	-0.220516310754927	-0.220516310754927
-0.17063589952449	-0.17063589952449	-0.17063589952449	-0.17063589952449	-0.17063589952449	-0.17063589952449
-0.0747563729990483	-0.0747563729990483	-0.0747563729990483	-0.0747563729990483	-0.0747563729990483	-0.0747563729990483
-0.0132597200050112	-0.0132597200050112	-0.0132597200050112	-0.0132597200050112	-0.0132597200050112	-0.0132597200050112
0.00619484075934032	0.00619484075934032	0.00619484075934032	0.00619484075934032	0.00619484075934032	0.00619484075934032
0.0435212113992509	0.0435212113992509	0.0435212113992509	0.0435212113992509	0.0435212113992509	0.0435212113992509
0.0927412177087484	0.0927412177087484	0.0927412177087484	0.0927412177087484	0.0927412177087484	0.0927412177087484
0.128735523695403	0.128735523695403	0.128735523695403	0.128735523695403	0.128735523695403	0.128735523695403
0.0803955925824327	0.0803955925824327	0.0803955925824327	0.0803955925824327	0.0803955925824327	0.0803955925824327
0.011554237340889	0.011554237340889	0.011554237340889	0.011554237340889	0.011554237340889	0.011554237340889
0.00597692756605863	0.00597692756605863	0.00597692756605863	0.00597692756605863	0.00597692756605863	0.00597692756605863
-0.0226934412454606	-0.0226934412454606	-0.0226934412454606	-0.0226934412454606	-0.0226934412454606	-0.0226934412454606
0.132917342959942	0.132917342959942	0.132917342959942	0.132917342959942	0.132917342959942	0.132917342959942
0.171447095046108	0.171447095046108	0.171447095046108	0.171447095046108	0.171447095046108	0.171447095046108
0.153269216231582	0.153269216231582	0.153269216231582	0.153269216231582	0.153269216231582	0.153269216231582
0.0460477532750563	0.0460477532750563	0.0460477532750563	0.0460477532750563	0.0460477532750563	0.0460477532750563
0.11755116692849	0.11755116692849	0.11755116692849	0.11755116692849	0.11755116692849	0.11755116692849
0.0708742945390001	0.0708742945390001	0.0708742945390001	0.0708742945390001	0.0708742945390001	0.0708742945390001
0.203725450311498	0.203725450311498	0.203725450311498	0.203725450311498	0.203725450311498	0.203725450311498
0.218024036383085	0.218024036383085	0.218024036383085	0.218024036383085	0.218024036383085	0.218024036383085
0.17559043411729	0.17559043411729	0.17559043411729	0.17559043411729	0.17559043411729	0.17559043411729
0.329753313369971	0.329753313369971	0.329753313369971	0.329753313369971	0.329753313369971	0.329753313369971
0.238548271867706	0.238548271867706	0.238548271867706	0.238548271867706	0.238548271867706	0.238548271867706
0.326865372192297	0.326865372192297	0.326865372192297	0.326865372192297	0.326865372192297	0.326865372192297
0.269989188063829	0.269989188063829	0.269989188063829	0.269989188063829	0.269989188063829	0.269989188063829
0.253259835391132	0.253259835391132	0.253259835391132	0.253259835391132	0.253259835391132	0.253259835391132
0.298603329577258	0.298603329577258	0.298603329577258	0.298603329577258	0.298603329577258	0.298603329577258
0.436667481696553	0.436667481696553	0.436667481696553	0.436667481696553	0.436667481696553	0.436667481696553
0.456643060021585	0.456643060021585	0.456643060021585	0.456643060021585	0.456643060021585	0.456643060021585
0.417372293152718	0.417372293152718	0.417372293152718	0.417372293152718	0.417372293152718	0.417372293152718
0.340821874489374	0.340821874489374	0.340821874489374	0.340821874489374	0.340821874489374	0.340821874489374
0.405616116915071	0.405616116915071	0.405616116915071	0.405616116915071	0.405616116915071	0.405616116915071
0.346066435747968	0.346066435747968	0.346066435747968	0.346066435747968	0.346066435747968	0.346066435747968
0.461850376510967	0.461850376510967	0.461850376510967	0.461850376510967	0.461850376510967	0.461850376510967
0.380952698341647	0.380952698341647	0.380952698341647	0.380952698341647	0.380952698341647	0.380952698341647
0.337683312989703	0.337683312989703	0.337683312989703	0.337683312989703	0.337683312989703	0.337683312989703
0.355767972873756	0.355767972873756	0.355767972873756	0.355767972873756	0.355767972873756	0.355767972873756
0.44008503222298	0.44008503222298	0.44008503222298	0.44008503222298	0.44008503222298	0.44008503222298
0.258789825352465	0.258789825352465	0.258789825352465	0.258789825352465	0.258789825352465	0.258789825352465
0.373100795967553	0.373100795967553	0.373100795967553	0.373100795967553	0.373100795967553	0.373100795967553
0.224402859670808	0.224402859670808	0.224402859670808	0.224402859670808	0.224402859670808	0.224402859670808
0.376906814424053	0.376906814424053	0.376906814424053	0.376906814424053	0.376906814424053	0.376906814424053
0.281815790606415	0.281815790606415	0.281815790606415	0.281815790606415	0.281815790606415	0.281815790606415
0.280925045427329	0.280925045427329	0.280925045427329	0.280925045427329	0.280925045427329	0.280925045427329
0.210631639780919	0.210631639780919	0.210631639780919	0.210631639780919	0.210631639780919	0.210631639780919
0.209035368455259	0.209035368455259	0.209035368455259	0.209035368455259	0.209035368455259	0.209035368455259
0.227511682585511	0.227511682585511	0.227511682585511	0.227511682585511	0.227511682585511	0.227511682585511
0.0686822758048497	0.0686822758048497	0.0686822758048497	0.0686822758048497	0.0686822758048497	0.0686822758048497
0.0231993787056593	0.0231993787056593	0.0231993787056593	0.0231993787056593	0.0231993787056593	0.0231993787056593
0.00675939123154612	0.00675939123154612	0.00675939123154612	0.00675939123154612	0.00675939123154612	0.00675939123154612
0.0781949976659891	0.0781949976659891	0.0781949976659891	0.0781949976659891	0.0781949976659891	0.0781949976659891
0.0600439381440875	0.0600439381440875	0.0600439381440875	0.0600439381440875	0.0600439381440875	0.0600439381440875
0.0481927503744545	0.0481927503744545	0.0481927503744545	0.0481927503744545	0.0481927503744545	0.0481927503744545
0.10714095966288	0.10714095966288	0.10714095966288	0.10714095966288	0.10714095966288	0.10714095966288
0.056192455533377	0.056192455533377	0.056192455533377	0.056192455533377	0.056192455533377	0.056192455533377
-0.0742151006826566	-0.0742151006826566	-0.0742151006826566	-0.0742151006826566	-0.0742151006826566	-0.0742151006826566
0.0489998288271161	0.0489998288271161	0.0489998288271161	0.0489998288271161	0.0489998288271161	0.0489998288271161
-0.0150814428047717	-0.0150814428047717	-0.0150814428047717	-0.0150814428047717	-0.0150814428047717	-0.0150814428047717
0.0458721250927029	0.0458721250927029	0.0458721250927029	0.0458721250927029	0.0458721250927029	0.0458721250927029
-0.0504377142669341	-0.0504377142669341	-0.0504377142669341	-0.0504377142669341	-0.0504377142669341	-0.0504377142669341
0.0748849898944796	0.0748849898944796	0.0748849898944796	0.0748849898944796	0.0748849898944796	0.0748849898944796
0.0597337640656082	0.0597337640656082	0.0597337640656082	0.0597337640656082	0.0597337640656082	0.0597337640656082
0.0213783962381284	0.0213783962381284	0.0213783962381284	0.0213783962381284	0.0213783962381284	0.0213783962381284
-0.0237445154359874	-0.0237445154359874	-0.0237445154359874	-0.0237445154359874	-0.0237445154359874	-0.0237445154359874
-0.0447321725868057	-0.0447321725868057	-0.0447321725868057	-0.0447321725868057	-0.0447321725868057	-0.0447321725868057
-0.0588809286541573	-0.0588809286541573	-0.0588809286541573	-0.0588809286541573	-0.0588809286541573	-0.0588809286541573
-0.0374243134334164	-0.0374243134334164	-0.0374243134334164	-0.0374243134334164	-0.0374243134334164	-0.0374243134334164
-0.0367145000082983	-0.0367145000082983	-0.0367145000082983	-0.0367145000082983	-0.0367145000082983	-0.0367145000082983
0.0226955141095421	0.0226955141095421	0.0226955141095421	0.0226955141095421	0.0226955141095421	0.0226955141095421
0.0354792598681684	0.0354792598681684	0.0354792598681684	0.0354792598681684	0.0354792598681684	0.0354792598681684
-0.0451599142796541	-0.0451599142796541	-0.0451599142796541	-0.0451599142796541	-0.0451599142796541	-0.0451599142796541
-0.0203993063144836	-0.0203993063144836	-0.0203993063144836	-0.0203993063144836	-0.0203993063144836	-0.0203993063144836
0.0234897991161462	0.0234897991161462	0.0234897991161462	0.0234897991161462	0.0234897991161462	0.0234897991161462
0.0569665075903493	0.0569665075903493	0.0569665075903493	0.0569665075903493	0.0569665075903493	0.0569665075903493
0.0447308269727206	0.0447308269727206	0.0447308269727206	0.0447308269727206	0.0447308269727206	0.0447308269727206
0.0299133302454247	0.0299133302454247	0.0299133302454247	0.0299133302454247	0.0299133302454247	0.0299133302454247
0.101980392409608	0.101980392409608	0.101980392409608	0.101980392409608	0.101980392409608	0.101980392409608
0.198525846708972	0.198525846708972	0.198525846708972	0.198525846708972	0.198525846708972	0.198525846708972
0.106436477097183	0.106436477097183	0.106436477097183	0.106436477097183	0.106436477097183	0.106436477097183
0.138740075392509	0.138740075392509	0.138740075392509	0.138740075392509	0.138740075392509	0.138740075392509
0.0967221026804168	0.0967221026804168	0.0967221026804168	0.0967221026804168	0.0967221026804168	0.0967221026804168
0.166126916121451	0.166126916121451	0.166126916121451	0.166126916121451	0.166126916121451	0.166126916121451
0.265852915628458	0.265852915628458	0.265852915628458	0.265852915628458	0.265852915628458	0.265852915628458
0.335346503661312	0.335346503661312	0.335346503661312	0.335346503661312	0.335346503661312	0.335346503661312
0.343906093985648	0.343906093985648	0.343906093985648	0.343906093985648	0.343906093985648	0.343906093985648
0.340336541037079	0.340336541037079	0.340336541037079	0.340336541037079	0.340336541037079	0.340336541037079
0.277634319802377	0.277634319802377	0.277634319802377	0.277634319802377	0.277634319802377	0.277634319802377
0.216261749435744	0.216261749435744	0.216261749435744	0.216261749435744	0.216261749435744	0.216261749435744
0.274041166187541	0.274041166187541	0.274041166187541	0.274041166187541	0.274041166187541	0.274041166187541
0.213023448559535	0.213023448559535	0.213023448559535	0.213023448559535	0.213023448559535	0.213023448559535
0.149792602048245	0.149792602048245	0.149792602048245	0.149792602048245	0.149792602048245	0.149792602048245
0.154192207378721	0.154192207378721	0.154192207378721	0.154192207378721	0.154192207378721	0.154192207378721
0.248757359075184	0.248757359075184	0.248757359075184	0.248757359075184	0.248757359075184	0.248757359075184
0.139067198385651	0.139067198385651	0.139067198385651	0.139067198385651	0.139067198385651	0.139067198385651
0.239025238911351	0.239025238911351	0.239025238911351	0.239025238911351	0.239025238911351	0.239025238911351
0.188684282010105	0.188684282010105	0.188684282010105	0.188684282010105	0.188684282010105	0.188684282010105
0.0352570428531011	0.0352570428531011	0.0352570428531011	0.0352570428531011	0.0352570428531011	0.0352570428531011
0.0917848531839505	0.0917848531839505	0.0917848531839505	0.0917848531839505	0.0917848531839505	0.0917848531839505
-0.00849327269908849	-0.00849327269908849	-0.00849327269908849	-0.00849327269908849	-0.00849327269908849	-0.00849327269908849
0.0233441440340412	0.0233441440340412	0.0233441440340412	0.0233441440340412	0.0233441440340412	0.0233441440340412
-0.0502270024759395	-0.0502270024759395	-0.0502270024759395	-0.0502270024759395	-0.0502270024759395	-0.0502270024759395
0.0649496378244647	0.0649496378244647	0.0649496378244647	0.0649496378244647	0.0649496378244647	0.0649496378244647
0.0250225966457837	0.0250225966457837	0.0250225966457837	0.0250225966457837	0.0250225966457837	0.0250225966457837
0.0671495979761798	0.0671495979761798	0.0671495979761798	0.0671495979761798	0.0671495979761798	0.0671495979761798
-0.0437727823646701	-0.0437727823646701	-0.0437727823646701	-0.0437727823646701	-0.0437727823646701	-0.0437727823646701
-0.0981398032921051	-0.0981398032921051	-0.0981398032921051	-0.0981398032921051	-0.0981398032921051	-0.0981398032921051
-0.116057439019878	-0.116057439019878	-0.116057439019878	-0.116057439019878	-0.116057439019878	-0.116057439019878
-0.246996391865619	-0.246996391865619	-0.246996391865619	-0.246996391865619	-0.246996391865619	-0.246996391865619
-0.208698423276511	-0.208698423276511	-0.208698423276511	-0.208698423276511	-0.208698423276511	-0.208698423276511
-0.113346580067579	-0.113346580067579	-0.113346580067579	-0.113346580067579	-0.113346580067579	-0.113346580067579
-0.126988740107325	-0.126988740107325	-0.126988740107325	-0.126988740107325	-0.126988740107325	-0.126988740107325
0.162853361160616	0.162853361160616	0.162853361160616	0.162853361160616	0.162853361160616	0.162853361160616
0.410192755459121	0.410192755459121	0.410192755459121	0.410192755459121	0.410192755459121	0.410192755459121
0.545409989258467	0.545409989258467	0.545409989258467	0.545409989258467	0.545409989258467	0.545409989258467
0.840122926131108	0.840122926131108	0.840122926131108	0.840122926131108	0.840122926131108	0.840122926131108
0.974540820383969	0.974540820383969	0.974540820383969	0.974540820383969	0.974540820383969	0.974540820383969
1.04808903438347	1.04808903438347	1.04808903438347	1.04808903438347	1.04808903438347	1.04808903438347
1.01515626420164	1.01515626420164	1.01515626420164	1.01515626420164	1.01515626420164	1.01515626420164
0.836657507497465	0.836657507497465	0.836657507497465	0.836657507497465	0.836657507497465	0.836657507497465
0.5300935156611	0.5300935156611	0.5300935156611	0.5300935156611	0.5300935156611	0.5300935156611
0.181462383490157	0.181462383490157	0.181462383490157	0.181462383490157	0.181462383490157	0.181462383490157
-0.00508006195079491	-0.00508006195079491	-0.00508006195079491	-0.00508006195079491	-0.00508006195079491	-0.00508006195079491
-0.183278216425197	-0.183278216425197	-0.183278216425197	-0.183278216425197	-0.183278216425197	-0.183278216425197
-0.310814230773022	-0.310814230773022	-0.310814230773022	-0.310814230773022	-0.310814230773022	-0.310814230773022
-0.333908955350947	-0.333908955350947	-0.333908955350947	-0.333908955350947	-0.333908955350947	-0.333908955350947
-0.193334693166846	-0.193334693166846	-0.193334693166846	-0.193334693166846	-0.193334693166846	-0.193334693166846
-0.126101734325335	-0.126101734325335	-0.126101734325335	-0.126101734325335	-0.126101734325335	-0.126101734325335
-0.0576019271877905	-0.0576019271877905	-0.0576019271877905	-0.0576019271877905	-0.0576019271877905	-0.0576019271877905
-0.0943356031917888	-0.0943356031917888	-0.0943356031917888	-0.0943356031917888	-0.0943356031917888	-0.0943356031917888
0.0118118340654833	0.0118118340654833	0.0118118340654833	0.0118118340654833	0.0118118340654833	0.0118118340654833
-0.0898877842236641	-0.0898877842236641	-0.0898877842236641	-0.0898877842236641	-0.0898877842236641	-0.0898877842236641
-0.018578862862518	-0.018578862862518	-0.018578862862518	-0.018578862862518	-0.018578862862518	-0.018578862862518
0.0725002470106659	0.0725002470106659	0.0725002470106659	0.0725002470106659	0.0725002470106659	0.0725002470106659
-0.017385603204819	-0.017385603204819	-0.017385603204819	-0.017385603204819	-0.017385603204819	-0.017385603204819
-0.0919720952229519	-0.0919720952229519	-0.0919720952229519	-0.0919720952229519	-0.0919720952229519	-0.0919720952229519
0.0860577855655483	0.0860577855655483	0.0860577855655483	0.0860577855655483	0.0860577855655483	0.0860577855655483
0.0225625346890684	0.0225625346890684	0.0225625346890684	0.0225625346890684	0.0225625346890684	0.0225625346890684
0.0543711607908487	0.0543711607908487	0.0543711607908487	0.0543711607908487	0.0543711607908487	0.0543711607908487
0.0295608508933144	0.0295608508933144	0.0295608508933144	0.0295608508933144	0.0295608508933144	0.0295608508933144
0.0650203756802715	0.0650203756802715	0.0650203756802715	0.0650203756802715	0.0650203756802715	0.0650203756802715
0.00754562065209072	0.00754562065209072	0.00754562065209072	0.00754562065209072	0.00754562065209072	0.00754562065209072
0.0578068655613188	0.0578068655613188	0.0578068655613188	0.0578068655613188	0.0578068655613188	0.0578068655613188
0.181729794047088	0.181729794047088	0.181729794047088	0.181729794047088	0.181729794047088	0.181729794047088
0.0945859277026966	0.0945859277026966	0.0945859277026966	0.0945859277026966	0.0945859277026966	0.0945859277026966
0.146472975051133	0.146472975051133	0.146472975051133	0.146472975051133	0.146472975051133	0.146472975051133
0.0989764789403405	0.0989764789403405	0.0989764789403405	0.0989764789403405	0.0989764789403405	0.0989764789403405
0.167484733735905	0.167484733735905	0.167484733735905	0.167484733735905	0.167484733735905	0.167484733735905
0.190947854301829	0.190947854301829	0.190947854301829	0.190947854301829	0.190947854301829	0.190947854301829
0.306000443800385	0.306000443800385	0.306000443800385	0.306000443800385	0.306000443800385	0.306000443800385
0.28879030858986	0.28879030858986	0.28879030858986	0.28879030858986	0.28879030858986	0.28879030858986
0.289028496748618	0.289028496748618	0.289028496748618	0.289028496748618	0.289028496748618	0.289028496748618
0.31933192590578	0.31933192590578	0.31933192590578	0.31933192590578	0.31933192590578	0.31933192590578
0.256743515836178	0.256743515836178	0.256743515836178	0.256743515836178	0.256743515836178	0.256743515836178
0.255985157845765	0.255985157845765	0.255985157845765	0.255985157845765	0.255985157845765	0.255985157845765
0.319376349815033	0.319376349815033	0.319376349815033	0.319376349815033	0.319376349815033	0.319376349815033
0.350353591957483	0.350353591957483	0.350353591957483	0.350353591957483	0.350353591957483	0.350353591957483
0.279466362791258	0.279466362791258	0.279466362791258	0.279466362791258	0.279466362791258	0.279466362791258
0.297430493766853	0.297430493766853	0.297430493766853	0.297430493766853	0.297430493766853	0.297430493766853
0.295139604370816	0.295139604370816	0.295139604370816	0.295139604370816	0.295139604370816	0.295139604370816
0.37157221399479	0.37157221399479	0.37157221399479	0.37157221399479	0.37157221399479	0.37157221399479
0.330276690963309	0.330276690963309	0.330276690963309	0.330276690963309	0.330276690963309	0.330276690963309
0.365825149004842	0.365825149004842	0.365825149004842	0.365825149004842	0.365825149004842	0.365825149004842
0.281218939173281	0.281218939173281	0.281218939173281	0.281218939173281	0.281218939173281	0.281218939173281
0.344244934011763	0.344244934011763	0.344244934011763	0.344244934011763	0.344244934011763	0.344244934011763
0.372519932627861	0.372519932627861	0.372519932627861	0.372519932627861	0.372519932627861	0.372519932627861
0.204817480604673	0.204817480604673	0.204817480604673	0.204817480604673	0.204817480604673	0.204817480604673
0.23180159457276	0.23180159457276	0.23180159457276	0.23180159457276	0.23180159457276	0.23180159457276
0.291503133714269	0.291503133714269	0.291503133714269	0.291503133714269	0.291503133714269	0.291503133714269
0.10531519150922	0.10531519150922	0.10531519150922	0.10531519150922	0.10531519150922	0.10531519150922
0.209756942079992	0.209756942079992	0.209756942079992	0.209756942079992	0.209756942079992	0.209756942079992
0.124359488014584	0.124359488014584	0.124359488014584	0.124359488014584	0.124359488014584	0.124359488014584
0.0423887469907277	0.0423887469907277	0.0423887469907277	0.0423887469907277	0.0423887469907277	0.0423887469907277
0.0136573545678064	0.0136573545678064	0.0136573545678064	0.0136573545678064	0.0136573545678064	0.0136573545678064
0.161160861658331	0.161160861658331	0.161160861658331	0.161160861658331	0.161160861658331	0.161160861658331
0.0515815320088134	0.0515815320088134	0.0515815320088134	0.0515815320088134	0.0515815320088134	0.0515815320088134
-0.030912835382783	-0.030912835382783	-0.030912835382783	-0.030912835382783	-0.030912835382783	-0.030912835382783
-0.0833830566276041	-0.0833830566276041	-0.0833830566276041	-0.0833830566276041	-0.0833830566276041	-0.0833830566276041
-0.060877246139773	-0.060877246139773	-0.060877246139773	-0.060877246139773	-0.060877246139773	-0.060877246139773
-0.0679259752067251	-0.0679259752067251	-0.0679259752067251	-0.0679259752067251	-0.0679259752067251	-0.0679259752067251
0.0449469842031147	0.0449469842031147	0.0449469842031147	0.0449469842031147	0.0449469842031147	0.0449469842031147
0.0568198693894643	0.0568198693894643	0.0568198693894643	0.0568198693894643	0.0568198693894643	0.0568198693894643
-0.0171341678457654	-0.0171341678457654	-0.0171341678457654	-0.0171341678457654	-0.0171341678457654	-0.0171341678457654
0.07245676261349	0.07245676261349	0.07245676261349	0.07245676261349	0.07245676261349	0.07245676261349
0.014701007560257	0.014701007560257	0.014701007560257	0.014701007560257	0.014701007560257	0.014701007560257
0.0284975790585114	0.0284975790585114	0.0284975790585114	0.0284975790585114	0.0284975790585114	0.0284975790585114
-0.115698683986155	-0.115698683986155	-0.115698683986155	-0.115698683986155	-0.115698683986155	-0.115698683986155
-0.102962096083139	-0.102962096083139	-0.102962096083139	-0.102962096083139	-0.102962096083139	-0.102962096083139
-0.0993116000564558	-0.0993116000564558	-0.0993116000564558	-0.0993116000564558	-0.0993116000564558	-0.0993116000564558
-0.0499365698614303	-0.0499365698614303	-0.0499365698614303	-0.0499365698614303	-0.0499365698614303	-0.0499365698614303
0.0174555399881449	0.0174555399881449	0.0174555399881449	0.0174555399881449	0.0174555399881449	0.0174555399881449
-0.0642466189459809	-0.0642466189459809	-0.0642466189459809	-0.0642466189459809	-0.0642466189459809	-0.0642466189459809
0.069438116538866	0.069438116538866	0.069438116538866	0.069438116538866	0.069438116538866	0.069438116538866
-0.0322848307023379	-0.0322848307023379	-0.0322848307023379	-0.0322848307023379	-0.0322848307023379	-0.0322848307023379
0.00151118069639512	0.00151118069639512	0.00151118069639512	0.00151118069639512	0.00151118069639512	0.00151118069639512
-0.0343246809610506	-0.0343246809610506	-0.0343246809610506	-0.0343246809610506	-0.0343246809610506	-0.0343246809610506
-0.0688404511763792	-0.0688404511763792	-0.0688404511763792	-0.0688404511763792	-0.0688404511763792	-0.0688404511763792
0.0567545152710762	0.0567545152710762	0.0567545152710762	0.0567545152710762	0.0567545152710762	0.0567545152710762
0.05887602520417	0.05887602520417	0.05887602520417	0.05887602520417	0.05887602520417	0.05887602520417
0.0244460906255694	0.0244460906255694	0.0244460906255694	0.0244460906255694	0.0244460906255694	0.0244460906255694
-0.00704906245082278	-0.00704906245082278	-0.00704906245082278	-0.00704906245082278	-0.00704906245082278	-0.00704906245082278
0.0388326859573203	0.0388326859573203	0.0388326859573203	0.0388326859573203	0.0388326859573203	0.0388326859573203
-0.024936146602747	-0.024936146602747	-0.024936146602747	-0.024936146602747	-0.024936146602747	-0.024936146602747
-0.0219048843930441	-0.0219048843930441	-0.0219048843930441	-0.0219048843930441	-0.0219048843930441	-0.0219048843930441
0.0779378223953814	0.0779378223953814	0.0779378223953814	0.0779378223953814	0.0779378223953814	0.0779378223953814
0.147511740702795	0.147511740702795	0.147511740702795	0.147511740702795	0.147511740702795	0.147511740702795
0.210057728782531	0.210057728782531	0.210057728782531	0.210057728782531	0.210057728782531	0.210057728782531
0.0889413941957488	0.0889413941957488	0.0889413941957488	0.0889413941957488	0.0889413941957488	0.0889413941957488
0.182507761532118	0.182507761532118	0.182507761532118	0.182507761532118	0.182507761532118	0.182507761532118
0.12626051499519	0.12626051499519	0.12626051499519	0.12626051499519	0.12626051499519	0.12626051499519
0.278059727438809	0.278059727438809	0.278059727438809	0.278059727438809	0.278059727438809	0.278059727438809
0.242221520854601	0.242221520854601	0.242221520854601	0.242221520854601	0.242221520854601	0.242221520854601
0.21421020652147	0.21421020652147	0.21421020652147	0.21421020652147	0.21421020652147	0.21421020652147
0.194453548271804	0.194453548271804	0.194453548271804	0.194453548271804	0.194453548271804	0.194453548271804
0.283382156962255	0.283382156962255	0.283382156962255	0.283382156962255	0.283382156962255	0.283382156962255
0.138740348242251	0.138740348242251	0.138740348242251	0.138740348242251	0.138740348242251	0.138740348242251
0.305353269541563	0.305353269541563	0.305353269541563	0.305353269541563	0.305353269541563	0.305353269541563
0.156311211319621	0.156311211319621	0.156311211319621	0.156311211319621	0.156311211319621	0.156311211319621
0.179454261462081	0.179454261462081	0.179454261462081	0.179454261462081	0.179454261462081	0.179454261462081
0.225965022054201	0.225965022054201	0.225965022054201	0.225965022054201	0.225965022054201	0.225965022054201
0.0481459433753352	0.0481459433753352	0.0481459433753352	0.0481459433753352	0.0481459433753352	0.0481459433753352
0.0847964401590171	0.0847964401590171	0.0847964401590171	0.0847964401590171	0.0847964401590171	0.0847964401590171
0.158366308568414	0.158366308568414	0.158366308568414	0.158366308568414	0.158366308568414	0.158366308568414
-0.0381127288061253	-0.0381127288061253	-0.0381127288061253	-0.0381127288061253	-0.0381127288061253	-0.0381127288061253
-0.0360974256554492	-0.0360974256554492	-0.0360974256554492	-0.0360974256554492	-0.0360974256554492	-0.0360974256554492
-0.0552126959173971	-0.0552126959173971	-0.0552126959173971	-0.0552126959173971	-0.0552126959173971	-0.0552126959173971
-0.0783651897640673	-0.0783651897640673	-0.0783651897640673	-0.0783651897640673	-0.0783651897640673	-0.0783651897640673
0.0739493497855276	0.0739493497855276	0.0739493497855276	0.0739493497855276	0.0739493497855276	0.0739493497855276
-0.0684469889052262	-0.0684469889052262	-0.0684469889052262	-0.0684469889052262	-0.0684469889052262	-0.0684469889052262
-0.0240413670385256	-0.0240413670385256	-0.0240413670385256	-0.0240413670385256	-0.0240413670385256	-0.0240413670385256
-0.0756192151373903	-0.0756192151373903	-0.0756192151373903	-0.0756192151373903	-0.0756192151373903	-0.0756192151373903
-0.106187481440498	-0.106187481440498	-0.106187481440498	-0.106187481440498	-0.106187481440498	-0.106187481440498
-0.206050344316943	-0.206050344316943	-0.206050344316943	-0.206050344316943	-0.206050344316943	-0.206050344316943
-0.2319849465126	-0.2319849465126	-0.2319849465126	-0.2319849465126	-0.2319849465126	-0.2319849465126
-0.152180364457771	-0.152180364457771	-0.152180364457771	-0.152180364457771	-0.152180364457771	-0.152180364457771
-0.17504953994994	-0.17504953994994	-0.17504953994994	-0.17504953994994	-0.17504953994994	-0.17504953994994
-0.0429606291758634	-0.0429606291758634	-0.0429606291758634	-0.0429606291758634	-0.0429606291758634	-0.0429606291758634
0.0914824158487889	0.0914824158487889	0.0914824158487889	0.0914824158487889	0.0914824158487889	0.0914824158487889
0.362848223425724	0.362848223425724	0.362848223425724	0.362848223425724	0.362848223425724	0.362848223425724
0.605066875410696	0.605066875410696	0.605066875410696	0.605066875410696	0.605066875410696	0.605066875410696
0.73756786730672	0.73756786730672	0.73756786730672	0.73756786730672	0.73756786730672	0.73756786730672
0.981435914977538	0.981435914977538	0.981435914977538	0.981435914977538	0.981435914977538	0.981435914977538
0.97116888207568	0.97116888207568	0.97116888207568	0.97116888207568	0.97116888207568	0.97116888207568
1.03920955522616	1.03920955522616	1.03920955522616	1.03920955522616	1.03920955522616	1.03920955522616
0.776104277688958	0.776104277688958	0.776104277688958	0.776104277688958	0.776104277688958	0.776104277688958
0.485119995520098	0.485119995520098	0.485119995520098	0.485119995520098	0.485119995520098	0.485119995520098
0.101271171775568	0.101271171775568	0.101271171775568	0.101271171775568	0.101271171775568	0.101271171775568
-0.0641926203727644	-0.0641926203727644	-0.0641926203727644	-0.0641926203727644	-0.0641926203727644	-0.0641926203727644
-0.221836644993767	-0.221836644993767	-0.221836644993767	-0.221836644993767	-0.221836644993767	-0.221836644993767
-0.352129446093086	-0.352129446093086	-0.352129446093086	-0.352129446093086	-0.352129446093086	-0.352129446093086
-0.261222162209692	-0.261222162209692	-0.261222162209692	-0.261222162209692	-0.261222162209692	-0.261222162209692
-0.373920329727119	-0.373920329727119	-0.373920329727119	-0.373920329727119	-0.373920329727119	-0.373920329727119
-0.195899857635545	-0.195899857635545	-0.195899857635545	-0.195899857635545	-0.195899857635545	-0.195899857635545
-0.203199961609553	-0.203199961609553	-0.203199961609553	-0.203199961609553	-0.203199961609553	-0.203199961609553
-0.161507386430841	-0.161507386430841	-0.161507386430841	-0.161507386430841	-0.161507386430841	-0.161507386430841
-0.00555076566888289	-0.00555076566888289	-0.00555076566888289	-0.00555076566888289	-0.00555076566888289	-0.00555076566888289
-0.0956986883784365	-0.0956986883784365	-0.0956986883784365	-0.0956986883784365	-0.0956986883784365	-0.0956986883784365
-0.0425474365612062	-0.0425474365612062	-0.0425474365612062	-0.0425474365612062	-0.0425474365612062	-0.0425474365612062
-0.0293045093716695	-0.0293045093716695	-0.0293045093716695	-0.0293045093716695	-0.0293045093716695	-0.0293045093716695
0.049287446838009	0.049287446838009	0.049287446838009	0.049287446838009	0.049287446838009	0.049287446838009
-0.0685244021440564	-0.0685244021440564	-0.0685244021440564	-0.0685244021440564	-0.0685244021440564	-0.0685244021440564
-0.0870138486519399	-0.0870138486519399	-0.0870138486519399	-0.0870138486519399	-0.0870138486519399	-0.0870138486519399
-0.0822911088473491	-0.0822911088473491	-0.0822911088473491	-0.0822911088473491	-0.0822911088473491	-0.0822911088473491
-0.0108803110491323	-0.0108803110491323	-0.0108803110491323	-0.0108803110491323	-0.0108803110491323	-0.0108803110491323
-0.031870684534496	-0.031870684534496	-0.031870684534496	-0.031870684534496	-0.031870684534496	-0.031870684534496
0.116196944376893	0.116196944376893	0.116196944376893	0.116196944376893	0.116196944376893	0.116196944376893
-0.00359100178061481	-0.00359100178061481	-0.00359100178061481	-0.00359100178061481	-0.00359100178061481	-0.00359100178061481
0.164133371545491	0.164133371545491	0.164133371545491	0.164133371545491	0.164133371545491	0.164133371545491
0.18720816178739	0.18720816178739	0.18720816178739	0.18720816178739	0.18720816178739	0.18720816178739
0.190535142960898	0.190535142960898	0.190535142960898	0.190535142960898	0.190535142960898	0.190535142960898
0.1888263063252	0.1888263063252	0.1888263063252	0.1888263063252	0.1888263063252	0.1888263063252
0.187697004951189	0.187697004951189	0.187697004951189	0.187697004951189	0.187697004951189	0.187697004951189
0.114860563979193	0.114860563979193	0.114860563979193	0.114860563979193	0.114860563979193	0.114860563979193
0.31404492542684	0.31404492542684	0.31404492542684	0.31404492542684	0.31404492542684	0.31404492542684
0.2530042718873	0.2530042718873	0.2530042718873	0.2530042718873	0.2530042718873	0.2530042718873
0.304573143238622	0.304573143238622	0.304573143238622	0.304573143238622	0.304573143238622	0.304573143238622
0.23944229093051	0.23944229093051	0.23944229093051	0.23944229093051	0.23944229093051	0.23944229093051
0.22935931764986	0.22935931764986	0.22935931764986	0.22935931764986	0.22935931764986	0.22935931764986
0.403699648107084	0.403699648107084	0.403699648107084	0.403699648107084	0.403699648107084	0.403699648107084
0.316847599689764	0.316847599689764	0.316847599689764	0.316847599689764	0.316847599689764	0.316847599689764
0.391763799321703	0.391763799321703	0.391763799321703	0.391763799321703	0.391763799321703	0.391763799321703
0.284527598671728	0.284527598671728	0.284527598671728	0.284527598671728	0.284527598671728	0.284527598671728
0.343668747161629	0.343668747161629	0.343668747161629	0.343668747161629	0.343668747161629	0.343668747161629
0.326742032351318	0.326742032351318	0.326742032351318	0.326742032351318	0.326742032351318	0.326742032351318
0.411405178413795	0.411405178413795	0.411405178413795	0.411405178413795	0.411405178413795	0.411405178413795
0.434885164384668	0.434885164384668	0.434885164384668	0.434885164384668	0.434885164384668	0.434885164384668
0.332553823401911	0.332553823401911	0.332553823401911	0.332553823401911	0.332553823401911	0.332553823401911
0.26881562432633	0.26881562432633	0.26881562432633	0.26881562432633	0.26881562432633	0.26881562432633
0.289053704490128	0.289053704490128	0.289053704490128	0.289053704490128	0.289053704490128	0.289053704490128
0.244424383934837	0.244424383934837	0.244424383934837	0.244424383934837	0.244424383934837	0.244424383934837
0.221690464431686	0.221690464431686	0.221690464431686	0.221690464431686	0.221690464431686	0.221690464431686
0.155920999617248	0.155920999617248	0.155920999617248	0.155920999617248	0.155920999617248	0.155920999617248
0.139014817729087	0.139014817729087	0.139014817729087	0.139014817729087	0.139014817729087	0.139014817729087
0.280228851603365	0.280228851603365	0.280228851603365	0.280228851603365	0.280228851603365	0.280228851603365
0.200370401923323	0.200370401923323	0.200370401923323	0.200370401923323	0.200370401923323	0.200370401923323
0.100313764879473	0.100313764879473	0.100313764879473	0.100313764879473	0.100313764879473	0.100313764879473
0.217387362040656	0.217387362040656	0.217387362040656	0.217387362040656	0.217387362040656	0.217387362040656
0.0846857389485928	0.0846857389485928	0.0846857389485928	0.0846857389485928	0.0846857389485928	0.0846857389485928
0.161755747879509	0.161755747879509	0.161755747879509	0.161755747879509	0.161755747879509	0.161755747879509
0.0380939854838599	0.0380939854838599	0.0380939854838599	0.0380939854838599	0.0380939854838599	0.0380939854838599
0.0204311579199741	0.0204311579199741	0.0204311579199741	0.0204311579199741	0.0204311579199741	0.0204311579199741
0.103547483888861	0.103547483888861	0.103547483888861	0.103547483888861	0.103547483888861	0.103547483888861
0.0293904325048962	0.0293904325048962	0.0293904325048962	0.0293904325048962	0.0293904325048962	0.0293904325048962
0.0178358969186227	0.0178358969186227	0.0178358969186227	0.0178358969186227	0.0178358969186227	0.0178358969186227
-0.104550515968803	-0.104550515968803	-0.104550515968803	-0.104550515968803	-0.104550515968803	-0.104550515968803
0.00679502204603556	0.00679502204603556	0.00679502204603556	0.00679502204603556	0.00679502204603556	0.00679502204603556
-0.110953782903239	-0.110953782903239	-0.110953782903239	-0.110953782903239	-0.110953782903239	-0.110953782903239
-0.0779472878404301	-0.0779472878404301	-0.0779472878404301	-0.0779472878404301	-0.0779472878404301	-0.0779472878404301
-0.124971334364514	-0.124971334364514	-0.124971334364514	-0.124971334364514	-0.124971334364514	-0.124971334364514
-0.0639149685742108	-0.0639149685742108	-0.0639149685742108	-0.0639149685742108	-0.0639149685742108	-0.0639149685742108
0.0107601357142244	0.0107601357142244	0.0107601357142244	0.0107601357142244	0.0107601357142244	0.0107601357142244
0.0111804671142846	0.0111804671142846	0.0111804671142846	0.0111804671142846	0.0111804671142846	0.0111804671142846
0.00211290042048327	0.00211290042048327	0.00211290042048327	0.00211290042048327	0.00211290042048327	0.00211290042048327
0.040083679062471	0.040083679062471	0.040083679062471	0.040083679062471	0.040083679062471	0.040083679062471
-0.0870129041306606	-0.0870129041306606	-0.0870129041306606	-0.0870129041306606	-0.0870129041306606	-0.0870129041306606
0.00955609311000405	0.00955609311000405	0.00955609311000405	0.00955609311000405	0.00955609311000405	0.00955609311000405
-0.000280593002034542	-0.000280593002034542	-0.000280593002034542	-0.000280593002034542	-0.000280593002034542	-0.000280593002034542
-0.120675910249587	-0.120675910249587	-0.120675910249587	-0.120675910249587	-0.120675910249587	-0.120675910249587
-0.0382755098368768	-0.0382755098368768	-0.0382755098368768	-0.0382755098368768	-0.0382755098368768	-0.0382755098368768
-0.0507643501659909	-0.0507643501659909	-0.0507643501659909	-0.0507643501659909	-0.0507643501659909	-0.0507643501659909
-0.0368843220423443	-0.0368843220423443	-0.0368843220423443	-0.0368843220423443	-0.0368843220423443	-0.0368843220423443
0.0196385579435011	0.0196385579435011	0.0196385579435011	0.0196385579435011	0.0196385579435011	0.0196385579435011
0.0516159210158213	0.0516159210158213	0.0516159210158213	0.0516159210158213	0.0516159210158213	0.0516159210158213
-0.0496365239781591	-0.0496365239781591	-0.0496365239781591	-0.0496365239781591	-0.0496365239781591	-0.0496365239781591
0.0338514095659144	0.0338514095659144	0.0338514095659144	0.0338514095659144	0.0338514095659144	0.0338514095659144
-0.012096590002018	-0.012096590002018	-0.012096590002018	-0.012096590002018	-0.012096590002018	-0.012096590002018
0.00123882270271311	0.00123882270271311	0.00123882270271311	0.00123882270271311	0.00123882270271311	0.00123882270271311
0.0213860945169829	0.0213860945169829	0.0213860945169829	0.0213860945169829	0.0213860945169829	0.0213860945169829
0.0207615420838821	0.0207615420838821	0.0207615420838821	0.0207615420838821	0.0207615420838821	0.0207615420838821
0.0304566867249354	0.0304566867249354	0.0304566867249354	0.0304566867249354	0.0304566867249354	0.0304566867249354
0.177479529786333	0.177479529786333	0.177479529786333	0.177479529786333	0.177479529786333	0.177479529786333
0.125430874568191	0.125430874568191	0.125430874568191	0.125430874568191	0.125430874568191	0.125430874568191
0.221013669266057	0.221013669266057	0.221013669266057	0.221013669266057	0.221013669266057	0.221013669266057
0.258669059002467	0.258669059002467	0.258669059002467	0.258669059002467	0.258669059002467	0.258669059002467
0.170745438610421	0.170745438610421	0.170745438610421	0.170745438610421	0.170745438610421	0.170745438610421
0.300148225768479	0.300148225768479	0.300148225768479	0.300148225768479	0.300148225768479	0.300148225768479
0.157563240177101	0.157563240177101	0.157563240177101	0.157563240177101	0.157563240177101	0.157563240177101
0.279600484735976	0.279600484735976	0.279600484735976	0.279600484735976	0.279600484735976	0.279600484735976
0.253584716827084	0.253584716827084	0.253584716827084	0.253584716827084	0.253584716827084	0.253584716827084
0.330159253552286	0.330159253552286	0.330159253552286	0.330159253552286	0.330159253552286	0.330159253552286
0.13131634121132	0.13131634121132	0.13131634121132	0.13131634121132	0.13131634121132	0.13131634121132
0.235171239111541	0.235171239111541	0.235171239111541	0.235171239111541	0.235171239111541	0.235171239111541
0.177467231571122	0.177467231571122	0.177467231571122	0.177467231571122	0.177467231571122	0.177467231571122
0.163518874820349	0.163518874820349	0.163518874820349	0.163518874820349	0.163518874820349	0.163518874820349
0.133961958841927	0.133961958841927	0.133961958841927	0.133961958841927	0.133961958841927	0.133961958841927
0.108206425620889	0.108206425620889	0.108206425620889	0.108206425620889	0.108206425620889	0.108206425620889
0.0865349580320994	0.0865349580320994	0.0865349580320994	0.0865349580320994	0.0865349580320994	0.0865349580320994
0.0964616888628201	0.0964616888628201	0.0964616888628201	0.0964616888628201	0.0964616888628201	0.0964616888628201
0.00557622201737907	0.00557622201737907	0.00557622201737907	0.00557622201737907	0.00557622201737907	0.00557622201737907
-0.0017056212320354	-0.0017056212320354	-0.0017056212320354	-0.0017056212320354	-0.0017056212320354	-0.0017056212320354
-0.0793850782007799	-0.0793850782007799	-0.0793850782007799	-0.0793850782007799	-0.0793850782007799	-0.0793850782007799
0.0556029592699333	0.0556029592699333	0.0556029592699333	0.0556029592699333	0.0556029592699333	0.0556029592699333
-0.0476667321620236	-0.0476667321620236	-0.0476667321620236	-0.0476667321620236	-0.0476667321620236	-0.0476667321620236
0.00572441098278494	0.00572441098278494	0.00572441098278494	0.00572441098278494	0.00572441098278494	0.00572441098278494
-0.152089343554336	-0.152089343554336	-0.152089343554336	-0.152089343554336	-0.152089343554336	-0.152089343554336
-0.0115185839770102	-0.0115185839770102	-0.0115185839770102	-0.0115185839770102	-0.0115185839770102	-0.0115185839770102
-0.0606106992225358	-0.0606106992225358	-0.0606106992225358	-0.0606106992225358	-0.0606106992225358	-0.0606106992225358
-0.130152680825531	-0.130152680825531	-0.130152680825531	-0.130152680825531	-0.130152680825531	-0.130152680825531
-0.26144799327741	-0.26144799327741	-0.26144799327741	-0.26144799327741	-0.26144799327741	-0.26144799327741
-0.133699888620786	-0.133699888620786	-0.133699888620786	-0.133699888620786	-0.133699888620786	-0.133699888620786
-0.0896054109610142	-0.0896054109610142	-0.0896054109610142	-0.0896054109610142	-0.0896054109610142	-0.0896054109610142
-0.0105462128120615	-0.0105462128120615	-0.0105462128120615	-0.0105462128120615	-0.0105462128120615	-0.0105462128120615
0.125471409380374	0.125471409380374	0.125471409380374	0.125471409380374	0.125471409380374	0.125471409380374
0.344255798146214	0.344255798146214	0.344255798146214	0.344255798146214	0.344255798146214	0.344255798146214
0.532550619820785	0.532550619820785	0.532550619820785	0.532550619820785	0.532550619820785	0.532550619820785
0.768032082734167	0.768032082734167	0.768032082734167	0.768032082734167	0.768032082734167	0.768032082734167
0.931468603192723	0.931468603192723	0.931468603192723	0.931468603192723	0.931468603192723	0.931468603192723
1.06770975668303	1.06770975668303	1.06770975668303	1.06770975668303	1.06770975668303	1.06770975668303
0.904546882986177	0.904546882986177	0.904546882986177	0.904546882986177	0.904546882986177	0.904546882986177
0.745776293051186	0.745776293051186	0.745776293051186	0.745776293051186	0.745776293051186	0.745776293051186
0.427297552710539	0.427297552710539	0.427297552710539	0.427297552710539	0.427297552710539	0.427297552710539
0.230914072975545	0.230914072975545	0.230914072975545	0.230914072975545	0.230914072975545	0.230914072975545
-0.0443912783745123	-0.0443912783745123	-0.0443912783745123	-0.0443912783745123	-0.0443912783745123	-0.0443912783745123
-0.124670859307101	-0.124670859307101	-0.124670859307101	-0.124670859307101	-0.124670859307101	-0.124670859307101
-0.390438514542541	-0.390438514542541	-0.390438514542541	-0.390438514542541	-0.390438514542541	-0.390438514542541
-0.315809978833563	-0.315809978833563	-0.315809978833563	-0.315809978833563	-0.315809978833563	-0.315809978833563
-0.307841237047078	-0.307841237047078	-0.307841237047078	-0.307841237047078	-0.307841237047078	-0.307841237047078
-0.203304818548221	-0.203304818548221	-0.203304818548221	-0.203304818548221	-0.203304818548221	-0.203304818548221
-0.240231217436722	-0.240231217436722	-0.240231217436722	-0.240231217436722	-0.240231217436722	-0.240231217436722
-0.203547756229695	-0.203547756229695	-0.203547756229695	-0.203547756229695	-0.203547756229695	-0.203547756229695
-0.07895250505497	-0.07895250505497	-0.07895250505497	-0.07895250505497	-0.07895250505497	-0.07895250505497
0.00733501912018152	0.00733501912018152	0.00733501912018152	0.00733501912018152	0.00733501912018152	0.00733501912018152
-0.12370175130898	-0.12370175130898	-0.12370175130898	-0.12370175130898	-0.12370175130898	-0.12370175130898
-0.108060591877883	-0.108060591877883	-0.108060591877883	-0.108060591877883	-0.108060591877883	-0.108060591877883
-0.0971844361755415	-0.0971844361755415	-0.0971844361755415	-0.0971844361755415	-0.0971844361755415	-0.0971844361755415
-0.0264719880739665	-0.0264719880739665	-0.0264719880739665	-0.0264719880739665	-0.0264719880739665	-0.0264719880739665
0.00740902169608074	0.00740902169608074	0.00740902169608074	0.00740902169608074	0.00740902169608074	0.00740902169608074
-0.0228181158929597	-0.0228181158929597	-0.0228181158929597	-0.0228181158929597	-0.0228181158929597	-0.0228181158929597
-0.0311829337407864	-0.0311829337407864	-0.0311829337407864	-0.0311829337407864	-0.0311829337407864	-0.0311829337407864
-0.00300387995168955	-0.00300387995168955	-0.00300387995168955	-0.00300387995168955	-0.00300387995168955	-0.00300387995168955
0.064899814714506	0.064899814714506	0.064899814714506	0.064899814714506	0.064899814714506	0.064899814714506
0.176181809743166	0.176181809743166	0.176181809743166	0.176181809743166	0.176181809743166	0.176181809743166
0.0927537174338402	0.0927537174338402	0.0927537174338402	0.0927537174338402	0.0927537174338402	0.0927537174338402
0.173704422328363	0.173704422328363	0.173704422328363	0.173704422328363	0.173704422328363	0.173704422328363
0.129194435492092	0.129194435492092	0.129194435492092	0.129194435492092	0.129194435492092	0.129194435492092
0.136752855597461	0.136752855597461	0.136752855597461	0.136752855597461	0.136752855597461	0.136752855597461
0.268888457539462	0.268888457539462	0.268888457539462	0.268888457539462	0.268888457539462	0.268888457539462
0.308112718075119	0.308112718075119	0.308112718075119	0.308112718075119	0.308112718075119	0.308112718075119
0.171970424379839	0.171970424379839	0.171970424379839	0.171970424379839	0.171970424379839	0.171970424379839
0.328856597557088	0.328856597557088	0.328856597557088	0.328856597557088	0.328856597557088	0.328856597557088
0.302882495696516	0.302882495696516	0.302882495696516	0.302882495696516	0.302882495696516	0.302882495696516
0.377432318535393	0.377432318535393	0.377432318535393	0.377432318535393	0.377432318535393	0.377432318535393
0.227912905825638	0.227912905825638	0.227912905825638	0.227912905825638	0.227912905825638	0.227912905825638
0.35686456510908	0.35686456510908	0.35686456510908	0.35686456510908	0.35686456510908	0.35686456510908
0.378178139211513	0.378178139211513	0.378178139211513	0.378178139211513	0.378178139211513	0.378178139211513
0.344380356543741	0.344380356543741	0.344380356543741	0.344380356543741	0.344380356543741	0.344380356543741
0.391456145286313	0.391456145286313	0.391456145286313	0.391456145286313	0.391456145286313	0.391456145286313
0.406189578840865	0.406189578840865	0.406189578840865	0.406189578840865	0.406189578840865	0.406189578840865
0.307884372056274	0.307884372056274	0.307884372056274	0.307884372056274	0.307884372056274	0.307884372056274
0.319801805221666	0.319801805221666	0.319801805221666	0.319801805221666	0.319801805221666	0.319801805221666
0.438946047211096	0.438946047211096	0.438946047211096	0.438946047211096	0.438946047211096	0.438946047211096
0.440261732238684	0.440261732238684	0.440261732238684	0.440261732238684	0.440261732238684	0.440261732238684
0.33963389103307	0.33963389103307	0.33963389103307	0.33963389103307	0.33963389103307	0.33963389103307
0.241502450575811	0.241502450575811	0.241502450575811	0.241502450575811	0.241502450575811	0.241502450575811
0.344048457519575	0.344048457519575	0.344048457519575	0.344048457519575	0.344048457519575	0.344048457519575
0.364280063305138	0.364280063305138	0.364280063305138	0.364280063305138	0.364280063305138	0.364280063305138
0.364026842839148	0.364026842839148	0.364026842839148	0.364026842839148	0.364026842839148	0.364026842839148
0.263545183666403	0.263545183666403	0.263545183666403	0.263545183666403	0.263545183666403	0.263545183666403
0.169658117435181	0.169658117435181	0.169658117435181	0.169658117435181	0.169658117435181	0.169658117435181
0.247980937330908	0.247980937330908	0.247980937330908	0.247980937330908	0.247980937330908	0.247980937330908
0.118809057399856	0.118809057399856	0.118809057399856	0.118809057399856	0.118809057399856	0.118809057399856
0.162822798169928	0.162822798169928	0.162822798169928	0.162822798169928	0.162822798169928	0.162822798169928
0.13508401464642	0.13508401464642	0.13508401464642	0.13508401464642	0.13508401464642	0.13508401464642
0.144670874538995	0.144670874538995	0.144670874538995	0.144670874538995	0.144670874538995	0.144670874538995
0.111579838760996	0.111579838760996	0.111579838760996	0.111579838760996	0.111579838760996	0.111579838760996
0.0444319901404087	0.0444319901404087	0.0444319901404087	0.0444319901404087	0.0444319901404087	0.0444319901404087
-0.055536959223118	-0.055536959223118	-0.055536959223118	-0.055536959223118	-0.055536959223118	-0.055536959223118
0.0686956764200417	0.0686956764200417	0.0686956764200417	0.0686956764200417	0.0686956764200417	0.0686956764200417
0.048760029005642	0.048760029005642	0.048760029005642	0.048760029005642	0.048760029005642	0.048760029005642
0.0841032004350673	0.0841032004350673	0.0841032004350673	0.0841032004350673	0.0841032004350673	0.0841032004350673
0.0216444694050115	0.0216444694050115	0.0216444694050115	0.0216444694050115	0.0216444694050115	0.0216444694050115
-0.0977365770582495	-0.0977365770582495	-0.0977365770582495	-0.0977365770582495	-0.0977365770582495	-0.0977365770582495
-0.0600758927142765	-0.0600758927142765	-0.0600758927142765	-0.0600758927142765	-0.0600758927142765	-0.0600758927142765
0.00793478946787003	0.00793478946787003	0.00793478946787003	0.00793478946787003	0.00793478946787003	0.00793478946787003
-0.0346946682564198	-0.0346946682564198	-0.0346946682564198	-0.0346946682564198	-0.0346946682564198	-0.0346946682564198
-0.0584371047521889	-0.0584371047521889	-0.0584371047521889	-0.0584371047521889	-0.0584371047521889	-0.0584371047521889
-0.0609548662994659	-0.0609548662994659	-0.0609548662994659	-0.0609548662994659	-0.0609548662994659	-0.0609548662994659
-0.00142367784694558	-0.00142367784694558	-0.00142367784694558	-0.00142367784694558	-0.00142367784694558	-0.00142367784694558
-0.0517180086478775	-0.0517180086478775	-0.0517180086478775	-0.0517180086478775	-0.0517180086478775	-0.0517180086478775
0.0779697930552551	0.0779697930552551	0.0779697930552551	0.0779697930552551	0.0779697930552551	0.0779697930552551
0.0275643139604349	0.0275643139604349	0.0275643139604349	0.0275643139604349	0.0275643139604349	0.0275643139604349
-0.0699451951530586	-0.0699451951530586	-0.0699451951530586	-0.0699451951530586	-0.0699451951530586	-0.0699451951530586
0.0661918214000394	0.0661918214000394	0.0661918214000394	0.0661918214000394	0.0661918214000394	0.0661918214000394
-0.0356277654997868	-0.0356277654997868	-0.0356277654997868	-0.0356277654997868	-0.0356277654997868	-0.0356277654997868
-0.0302052644322193	-0.0302052644322193	-0.0302052644322193	-0.0302052644322193	-0.0302052644322193	-0.0302052644322193
