0.970053226587037	0.970053226587037	0.970053226587037	0.970053226587037	0.970053226587037	0.970053226587037
0.888412278774813	0.888412278774813	0.888412278774813	0.888412278774813	0.888412278774813	0.888412278774813
0.680186026616166	0.680186026616166	0.680186026616166	0.680186026616166	0.680186026616166	0.680186026616166
0.402362180416192	0.402362180416192	0.402362180416192	0.402362180416192	0.402362180416192	0.402362180416192
0.120227109814879	0.120227109814879	0.120227109814879	0.120227109814879	0.120227109814879	0.120227109814879
-0.117925094529664	-0.117925094529664	-0.117925094529664	-0.117925094529664	-0.117925094529664	-0.117925094529664
-0.285887384560511	-0.285887384560511	-0.285887384560511	-0.285887384560511	-0.285887384560511	-0.285887384560511
-0.37718282984719	-0.37718282984719	-0.37718282984719	-0.37718282984719	-0.37718282984719	-0.37718282984719
-0.4	-0.4	-0.4	-0.4	-0.4	-0.4
-0.37358591958381	-0.37358591958381	-0.37358591958381	-0.37358591958381	-0.37358591958381	-0.37358591958381
-0.319123130972638	-0.319123130972638	-0.319123130972638	-0.319123130972638	-0.319123130972638	-0.319123130972638
-0.256653192006406	-0.256653192006406	-0.256653192006406	-0.256653192006406	-0.256653192006406	-0.256653192006406
-0.203260527347317	-0.203260527347317	-0.203260527347317	-0.203260527347317	-0.203260527347317	-0.203260527347317
-0.163828052144787	-0.163828052144787	-0.163828052144787	-0.163828052144787	-0.163828052144787	-0.163828052144787
-0.137348779056145	-0.137348779056145	-0.137348779056145	-0.137348779056145	-0.137348779056145	-0.137348779056145
-0.120724694134376	-0.120724694134376	-0.120724694134376	-0.120724694134376	-0.120724694134376	-0.120724694134376
-0.108997703495842	-0.108997703495842	-0.108997703495842	-0.108997703495842	-0.108997703495842	-0.108997703495842
-0.0988133831770002	-0.0988133831770002	-0.0988133831770002	-0.0988133831770002	-0.0988133831770002	-0.0988133831770002
-0.0886940378739698	-0.0886940378739698	-0.0886940378739698	-0.0886940378739698	-0.0886940378739698	-0.0886940378739698
-0.0776434733484355	-0.0776434733484355	-0.0776434733484355	-0.0776434733484355	-0.0776434733484355	-0.0776434733484355
-0.0651927618504339	-0.0651927618504339	-0.0651927618504339	-0.0651927618504339	-0.0651927618504339	-0.0651927618504339
-0.0513185753494257	-0.0513185753494257	-0.0513185753494257	-0.0513185753494257	-0.0513185753494257	-0.0513185753494257
-0.0359430603514733	-0.0359430603514733	-0.0359430603514733	-0.0359430603514733	-0.0359430603514733	-0.0359430603514733
-0.0190389594405091	-0.0190389594405091	-0.0190389594405091	-0.0190389594405091	-0.0190389594405091	-0.0190389594405091
-0.000637779333999333	-0.000637779333999333	-0.000637779333999333	-0.000637779333999333	-0.000637779333999333	-0.000637779333999333
0.0191800984913243	0.0191800984913243	0.0191800984913243	0.0191800984913243	0.0191800984913243	0.0191800984913243
0.0402854177994646	0.0402854177994646	0.0402854177994646	0.0402854177994646	0.0402854177994646	0.0402854177994646
0.0625000475951586	0.0625000475951586	0.0625000475951586	0.0625000475951586	0.0625000475951586	0.0625000475951586
0.0856108955184652	0.0856108955184652	0.0856108955184652	0.0856108955184652	0.0856108955184652	0.0856108955184652
0.109347916416317	0.109347916416317	0.109347916416317	0.109347916416317	0.109347916416317	0.109347916416317
0.133349604164893	0.133349604164893	0.133349604164893	0.133349604164893	0.133349604164893	0.133349604164893
0.157240144901298	0.157240144901298	0.157240144901298	0.157240144901298	0.157240144901298	0.157240144901298
0.180632439878208	0.180632439878208	0.180632439878208	0.180632439878208	0.180632439878208	0.180632439878208
0.203128105463868	0.203128105463868	0.203128105463868	0.203128105463868	0.203128105463868	0.203128105463868
0.224317473142091	0.224317473142091	0.224317473142091	0.224317473142091	0.224317473142091	0.224317473142091
0.243779589512262	0.243779589512262	0.243779589512262	0.243779589512262	0.243779589512262	0.243779589512262
0.261082216289335	0.261082216289335	0.261082216289335	0.261082216289335	0.261082216289335	0.261082216289335
0.275834707245858	0.275834707245858	0.275834707245858	0.275834707245858	0.275834707245858	0.275834707245858
0.287734719387265	0.287734719387265	0.287734719387265	0.287734719387265	0.287734719387265	0.287734719387265
0.296475099804858	0.296475099804858	0.296475099804858	0.296475099804858	0.296475099804858	0.296475099804858
0.301831361703297	0.301831361703297	0.301831361703297	0.301831361703297	0.301831361703297	0.301831361703297
0.303663903290496	0.303663903290496	0.303663903290496	0.303663903290496	0.303663903290496	0.303663903290496
0.301918007777629	0.301918007777629	0.301918007777629	0.301918007777629	0.301918007777629	0.301918007777629
0.296623843379126	0.296623843379126	0.296623843379126	0.296623843379126	0.296623843379126	0.296623843379126
0.287896463312673	0.287896463312673	0.287896463312673	0.287896463312673	0.287896463312673	0.287896463312673
0.275935805799215	0.275935805799215	0.275935805799215	0.275935805799215	0.275935805799215	0.275935805799215
0.26102669406295	0.26102669406295	0.26102669406295	0.26102669406295	0.26102669406295	0.26102669406295
0.243533981449554	0.243533981449554	0.243533981449554	0.243533981449554	0.243533981449554	0.243533981449554
0.223773896215879	0.223773896215879	0.223773896215879	0.223773896215879	0.223773896215879	0.223773896215879
0.202172893732413	0.202172893732413	0.202172893732413	0.202172893732413	0.202172893732413	0.202172893732413
0.179199386586148	0.179199386586148	0.179199386586148	0.179199386586148	0.179199386586148	0.179199386586148
0.155296327277414	0.155296327277414	0.155296327277414	0.155296327277414	0.155296327277414	0.155296327277414
0.130881208219876	0.130881208219876	0.130881208219876	0.130881208219876	0.130881208219876	0.130881208219876
0.106346061740536	0.106346061740536	0.106346061740536	0.106346061740536	0.106346061740536	0.106346061740536
0.082057460079731	0.082057460079731	0.082057460079731	0.082057460079731	0.082057460079731	0.082057460079731
0.0583565153911347	0.0583565153911347	0.0583565153911347	0.0583565153911347	0.0583565153911347	0.0583565153911347
0.0355588797417566	0.0355588797417566	0.0355588797417566	0.0355588797417566	0.0355588797417566	0.0355588797417566
0.0139424942476323	0.0139424942476323	0.0139424942476323	0.0139424942476323	0.0139424942476323	0.0139424942476323
-0.00631087761640814	-0.00631087761640814	-0.00631087761640814	-0.00631087761640814	-0.00631087761640814	-0.00631087761640814
-0.025059893513047	-0.025059893513047	-0.025059893513047	-0.025059893513047	-0.025059893513047	-0.025059893513047
-0.0422105593866294	-0.0422105593866294	-0.0422105593866294	-0.0422105593866294	-0.0422105593866294	-0.0422105593866294
-0.057716077172147	-0.057716077172147	-0.057716077172147	-0.057716077172147	-0.057716077172147	-0.057716077172147
-0.0715712871876737	-0.0715712871876737	-0.0715712871876737	-0.0715712871876737	-0.0715712871876737	-0.0715712871876737
-0.0785734560174791	-0.0785734560174791	-0.0785734560174791	-0.0785734560174791	-0.0785734560174791	-0.0785734560174791
-0.0779790252613898	-0.0779790252613898	-0.0779790252613898	-0.0779790252613898	-0.0779790252613898	-0.0779790252613898
-0.0773805972198536	-0.0773805972198536	-0.0773805972198536	-0.0773805972198536	-0.0773805972198536	-0.0773805972198536
-0.076775934600489	-0.076775934600489	-0.076775934600489	-0.076775934600489	-0.076775934600489	-0.076775934600489
-0.0761603619269031	-0.0761603619269031	-0.0761603619269031	-0.0761603619269031	-0.0761603619269031	-0.0761603619269031
-0.0755262066835893	-0.0755262066835893	-0.0755262066835893	-0.0755262066835893	-0.0755262066835893	-0.0755262066835893
-0.0748461167049165	-0.0748461167049165	-0.0748461167049165	-0.0748461167049165	-0.0748461167049165	-0.0748461167049165
-0.0740930807409248	-0.0740930807409248	-0.0740930807409248	-0.0740930807409248	-0.0740930807409248	-0.0740930807409248
-0.073270857562682	-0.073270857562682	-0.073270857562682	-0.073270857562682	-0.073270857562682	-0.073270857562682
-0.0723533944594192	-0.0723533944594192	-0.0723533944594192	-0.0723533944594192	-0.0723533944594192	-0.0723533944594192
-0.0712833428599886	-0.0712833428599886	-0.0712833428599886	-0.0712833428599886	-0.0712833428599886	-0.0712833428599886
-0.0699720583328638	-0.0699720583328638	-0.0699720583328638	-0.0699720583328638	-0.0699720583328638	-0.0699720583328638
-0.0682996005861395	-0.0682996005861395	-0.0682996005861395	-0.0682996005861395	-0.0682996005861395	-0.0682996005861395
-0.0661147334675323	-0.0661147334675323	-0.0661147334675323	-0.0661147334675323	-0.0661147334675323	-0.0661147334675323
-0.0632349249643795	-0.0632349249643795	-0.0632349249643795	-0.0632349249643795	-0.0632349249643795	-0.0632349249643795
-0.0594463472036399	-0.0594463472036399	-0.0594463472036399	-0.0594463472036399	-0.0594463472036399	-0.0594463472036399
-0.0545038764518939	-0.0545038764518939	-0.0545038764518939	-0.0545038764518939	-0.0545038764518939	-0.0545038764518939
-0.0481310931153429	-0.0481310931153429	-0.0481310931153429	-0.0481310931153429	-0.0481310931153429	-0.0481310931153429
-0.0400202817398096	-0.0400202817398096	-0.0400202817398096	-0.0400202817398096	-0.0400202817398096	-0.0400202817398096
-0.0298934707723125	-0.0298934707723125	-0.0298934707723125	-0.0298934707723125	-0.0298934707723125	-0.0298934707723125
-0.0175252539895271	-0.0175252539895271	-0.0175252539895271	-0.0175252539895271	-0.0175252539895271	-0.0175252539895271
-0.00268787297513506	-0.00268787297513506	-0.00268787297513506	-0.00268787297513506	-0.00268787297513506	-0.00268787297513506
0.0146649519516134	0.0146649519516134	0.0146649519516134	0.0146649519516134	0.0146649519516134	0.0146649519516134
0.0343931972873366	0.0343931972873366	0.0343931972873366	0.0343931972873366	0.0343931972873366	0.0343931972873366
0.0561705363445229	0.0561705363445229	0.0561705363445229	0.0561705363445229	0.0561705363445229	0.0561705363445229
0.0794843392515287	0.0794843392515287	0.0794843392515287	0.0794843392515287	0.0794843392515287	0.0794843392515287
0.103641888208593	0.103641888208593	0.103641888208593	0.103641888208593	0.103641888208593	0.103641888208593
0.127877903889734	0.127877903889734	0.127877903889734	0.127877903889734	0.127877903889734	0.127877903889734
0.150998655480542	0.150998655480542	0.150998655480542	0.150998655480542	0.150998655480542	0.150998655480542
0.171805551523465	0.171805551523465	0.171805551523465	0.171805551523465	0.171805551523465	0.171805551523465
0.189268928965427	0.189268928965427	0.189268928965427	0.189268928965427	0.189268928965427	0.189268928965427
0.202528053157826	0.202528053157826	0.202528053157826	0.202528053157826	0.202528053157826	0.202528053157826
0.210891117856538	0.210891117856538	0.210891117856538	0.210891117856538	0.210891117856538	0.210891117856538
0.213835245221912	0.213835245221912	0.213835245221912	0.213835245221912	0.213835245221912	0.213835245221912
0.210903889707203	0.210903889707203	0.210903889707203	0.210903889707203	0.210903889707203	0.210903889707203
0.20200827902202	0.20200827902202	0.20200827902202	0.20200827902202	0.20200827902202	0.20200827902202
0.188169775831245	0.188169775831245	0.188169775831245	0.188169775831245	0.188169775831245	0.188169775831245
0.170441203021099	0.170441203021099	0.170441203021099	0.170441203021099	0.170441203021099	0.170441203021099
0.149821764854011	0.149821764854011	0.149821764854011	0.149821764854011	0.149821764854011	0.149821764854011
0.127257046968615	0.127257046968615	0.127257046968615	0.127257046968615	0.127257046968615	0.127257046968615
0.103639016379752	0.103639016379752	0.103639016379752	0.103639016379752	0.103639016379752	0.103639016379752
0.079806021478472	0.079806021478472	0.079806021478472	0.079806021478472	0.079806021478472	0.079806021478472
0.0565427920320306	0.0565427920320306	0.0565427920320306	0.0565427920320306	0.0565427920320306	0.0565427920320306
0.0345804391838901	0.0345804391838901	0.0345804391838901	0.0345804391838901	0.0345804391838901	0.0345804391838901
0.0145964554537206	0.0145964554537206	0.0145964554537206	0.0145964554537206	0.0145964554537206	0.0145964554537206
-0.00292008233790841	-0.00292008233790841	-0.00292008233790841	-0.00292008233790841	-0.00292008233790841	-0.00292008233790841
-0.0185713741169392	-0.0185713741169392	-0.0185713741169392	-0.0185713741169392	-0.0185713741169392	-0.0185713741169392
-0.0337197576303463	-0.0337197576303463	-0.0337197576303463	-0.0337197576303463	-0.0337197576303463	-0.0337197576303463
-0.0503903331754932	-0.0503903331754932	-0.0503903331754932	-0.0503903331754932	-0.0503903331754932	-0.0503903331754932
-0.0712926980512709	-0.0712926980512709	-0.0712926980512709	-0.0712926980512709	-0.0712926980512709	-0.0712926980512709
-0.099683255438178	-0.099683255438178	-0.099683255438178	-0.099683255438178	-0.099683255438178	-0.099683255438178
-0.136346922809471	-0.136346922809471	-0.136346922809471	-0.136346922809471	-0.136346922809471	-0.136346922809471
-0.176782328564716	-0.176782328564716	-0.176782328564716	-0.176782328564716	-0.176782328564716	-0.176782328564716
-0.210885023009317	-0.210885023009317	-0.210885023009317	-0.210885023009317	-0.210885023009317	-0.210885023009317
-0.22301042767757	-0.22301042767757	-0.22301042767757	-0.22301042767757	-0.22301042767757	-0.22301042767757
-0.195241156936546	-0.195241156936546	-0.195241156936546	-0.195241156936546	-0.195241156936546	-0.195241156936546
-0.109637756187317	-0.109637756187317	-0.109637756187317	-0.109637756187317	-0.109637756187317	-0.109637756187317
0.0428400119375067	0.0428400119375067	0.0428400119375067	0.0428400119375067	0.0428400119375067	0.0428400119375067
0.260546792549815	0.260546792549815	0.260546792549815	0.260546792549815	0.260546792549815	0.260546792549815
0.527423286626085	0.527423286626085	0.527423286626085	0.527423286626085	0.527423286626085	0.527423286626085
0.785241021431752	0.785241021431752	0.785241021431752	0.785241021431752	0.785241021431752	0.785241021431752
0.973690152468813	0.973690152468813	0.973690152468813	0.973690152468813	0.973690152468813	0.973690152468813
1.04367982174312	1.04367982174312	1.04367982174312	1.04367982174312	1.04367982174312	1.04367982174312
0.961195256963452	0.961195256963452	0.961195256963452	0.961195256963452	0.961195256963452	0.961195256963452
0.752034836684644	0.752034836684644	0.752034836684644	0.752034836684644	0.752034836684644	0.752034836684644
0.47741766209779	0.47741766209779	0.47741766209779	0.47741766209779	0.47741766209779	0.47741766209779
0.195046130042244	0.195046130042244	0.195046130042244	0.195046130042244	0.195046130042244	0.195046130042244
-0.0430759564229988	-0.0430759564229988	-0.0430759564229988	-0.0430759564229988	-0.0430759564229988	-0.0430759564229988
-0.210251373697356	-0.210251373697356	-0.210251373697356	-0.210251373697356	-0.210251373697356	-0.210251373697356
-0.3022136176326	-0.3022136176326	-0.3022136176326	-0.3022136176326	-0.3022136176326	-0.3022136176326
-0.325646060275232	-0.325646060275232	-0.325646060275232	-0.325646060275232	-0.325646060275232	-0.325646060275232
-0.298057053219851	-0.298057053219851	-0.298057053219851	-0.298057053219851	-0.298057053219851	-0.298057053219851
-0.242444498970039	-0.242444498970039	-0.242444498970039	-0.242444498970039	-0.242444498970039	-0.242444498970039
-0.180538847424915	-0.180538847424915	-0.180538847424915	-0.180538847424915	-0.180538847424915	-0.180538847424915
-0.126905250240958	-0.126905250240958	-0.126905250240958	-0.126905250240958	-0.126905250240958	-0.126905250240958
-0.0876665140824652	-0.0876665140824652	-0.0876665140824652	-0.0876665140824652	-0.0876665140824652	-0.0876665140824652
-0.0619544398862332	-0.0619544398862332	-0.0619544398862332	-0.0619544398862332	-0.0619544398862332	-0.0619544398862332
-0.0453561053846684	-0.0453561053846684	-0.0453561053846684	-0.0453561053846684	-0.0453561053846684	-0.0453561053846684
-0.0336098596435935	-0.0336098596435935	-0.0336098596435935	-0.0336098596435935	-0.0336098596435935	-0.0336098596435935
-0.0236008326742216	-0.0236008326742216	-0.0236008326742216	-0.0236008326742216	-0.0236008326742216	-0.0236008326742216
-0.0133609354331559	-0.0133609354331559	-0.0133609354331559	-0.0133609354331559	-0.0133609354331559	-0.0133609354331559
-0.0020688598223908	-0.0020688598223908	-0.0020688598223908	-0.0020688598223908	-0.0020688598223908	-0.0020688598223908
0.0103732674729812	0.0103732674729812	0.0103732674729812	0.0103732674729812	0.0103732674729812	0.0103732674729812
0.0242617631999955	0.0242617631999955	0.0242617631999955	0.0242617631999955	0.0242617631999955	0.0242617631999955
0.0396624802131072	0.0396624802131072	0.0396624802131072	0.0396624802131072	0.0396624802131072	0.0396624802131072
0.0565902962950111	0.0565902962950111	0.0565902962950111	0.0565902962950111	0.0565902962950111	0.0565902962950111
0.0750121229736394	0.0750121229736394	0.0750121229736394	0.0750121229736394	0.0750121229736394	0.0750121229736394
0.0948469055221626	0.0948469055221626	0.0948469055221626	0.0948469055221626	0.0948469055221626	0.0948469055221626
0.115965940823377	0.115965940823377	0.115965940823377	0.115965940823377	0.115965940823377	0.115965940823377
0.13821703972472	0.13821703972472	0.13821703972472	0.13821703972472	0.13821703972472	0.13821703972472
0.161354195493599	0.161354195493599	0.161354195493599	0.161354195493599	0.161354195493599	0.161354195493599
0.185071393605709	0.185071393605709	0.185071393605709	0.185071393605709	0.185071393605709	0.185071393605709
0.209039049666398	0.209039049666398	0.209039049666398	0.209039049666398	0.209039049666398	0.209039049666398
0.232904009410664	0.232904009410664	0.232904009410664	0.232904009410664	0.232904009410664	0.232904009410664
0.256289548703158	0.256289548703158	0.256289548703158	0.256289548703158	0.256289548703158	0.256289548703158
0.278795373538185	0.278795373538185	0.278795373538185	0.278795373538185	0.278795373538185	0.278795373538185
0.299997620039699	0.299997620039699	0.299997620039699	0.299997620039699	0.299997620039699	0.299997620039699
0.319448854461308	0.319448854461308	0.319448854461308	0.319448854461308	0.319448854461308	0.319448854461308
0.336716838895516	0.336716838895516	0.336716838895516	0.336716838895516	0.336716838895516	0.336716838895516
0.351477366070936	0.351477366070936	0.351477366070936	0.351477366070936	0.351477366070936	0.351477366070936
0.363354108789478	0.363354108789478	0.363354108789478	0.363354108789478	0.363354108789478	0.363354108789478
0.372043622402092	0.372043622402092	0.372043622402092	0.372043622402092	0.372043622402092	0.372043622402092
0.37732775571963	0.37732775571963	0.37732775571963	0.37732775571963	0.37732775571963	0.37732775571963
0.37907365101285	0.37907365101285	0.37907365101285	0.37907365101285	0.37907365101285	0.37907365101285
0.377233744012416	0.377233744012416	0.377233744012416	0.377233744012416	0.377233744012416	0.377233744012416
0.371845763908892	0.371845763908892	0.371845763908892	0.371845763908892	0.371845763908892	0.371845763908892
0.36303273335275	0.36303273335275	0.36303273335275	0.36303273335275	0.36303273335275	0.36303273335275
0.351002968454364	0.351002968454364	0.351002968454364	0.351002968454364	0.351002968454364	0.351002968454364
0.336050078784013	0.336050078784013	0.336050078784013	0.336050078784013	0.336050078784013	0.336050078784013
0.318500293629816	0.318500293629816	0.318500293629816	0.318500293629816	0.318500293629816	0.318500293629816
0.298664936893101	0.298664936893101	0.298664936893101	0.298664936893101	0.298664936893101	0.298664936893101
0.277015545513433	0.277015545513433	0.277015545513433	0.277015545513433	0.277015545513433	0.277015545513433
0.254010574220654	0.254010574220654	0.254010574220654	0.254010574220654	0.254010574220654	0.254010574220654
0.230085112843555	0.230085112843555	0.230085112843555	0.230085112843555	0.230085112843555	0.230085112843555
0.20565088630988	0.20565088630988	0.20565088630988	0.20565088630988	0.20565088630988	0.20565088630988
0.181096254646324	0.181096254646324	0.181096254646324	0.181096254646324	0.181096254646324	0.181096254646324
0.156786212978535	0.156786212978535	0.156786212978535	0.156786212978535	0.156786212978535	0.156786212978535
0.133062391531112	0.133062391531112	0.133062391531112	0.133062391531112	0.133062391531112	0.133062391531112
0.110243055627606	0.110243055627606	0.110243055627606	0.110243055627606	0.110243055627606	0.110243055627606
0.0886120290266281	0.0886120290266281	0.0886120290266281	0.0886120290266281	0.0886120290266281	0.0886120290266281
0.0683481702044726	0.0683481702044726	0.0683481702044726	0.0683481702044726	0.0683481702044726	0.0683481702044726
0.0495897071733373	0.0495897071733373	0.0495897071733373	0.0495897071733373	0.0495897071733373	0.0495897071733373
0.0324299303459198	0.0324299303459198	0.0324299303459198	0.0324299303459198	0.0324299303459198	0.0324299303459198
0.0169147548828641	0.0169147548828641	0.0169147548828641	0.0169147548828641	0.0169147548828641	0.0169147548828641
0.00304862599184513	0.00304862599184513	0.00304862599184513	0.00304862599184513	0.00304862599184513	0.00304862599184513
-0.00284414928182458	-0.00284414928182458	-0.00284414928182458	-0.00284414928182458	-0.00284414928182458	-0.00284414928182458
-0.00230510650539006	-0.00230510650539006	-0.00230510650539006	-0.00230510650539006	-0.00230510650539006	-0.00230510650539006
-0.0017561967012405	-0.0017561967012405	-0.0017561967012405	-0.0017561967012405	-0.0017561967012405	-0.0017561967012405
-0.00120197731676197	-0.00120197731676197	-0.00120197731676197	-0.00120197731676197	-0.00120197731676197	-0.00120197731676197
-0.000638879077537846	-0.000638879077537846	-0.000638879077537846	-0.000638879077537846	-0.000638879077537846	-0.000638879077537846
-5.8911907532988e-05	-5.8911907532988e-05	-5.8911907532988e-05	-5.8911907532988e-05	-5.8911907532988e-05	-5.8911907532988e-05
0.000550602442083603	0.000550602442083603	0.000550602442083603	0.000550602442083603	0.000550602442083603	0.000550602442083603
0.00120762410529701	0.00120762410529701	0.00120762410529701	0.00120762410529701	0.00120762410529701	0.00120762410529701
0.00193986916427352	0.00193986916427352	0.00193986916427352	0.00193986916427352	0.00193986916427352	0.00193986916427352
0.00278600909123916	0.00278600909123916	0.00278600909123916	0.00278600909123916	0.00278600909123916	0.00278600909123916
0.00380616509074977	0.00380616509074977	0.00380616509074977	0.00380616509074977	0.00380616509074977	0.00380616509074977
0.00508343702304348	0.00508343702304348	0.00508343702304348	0.00508343702304348	0.00508343702304348	0.00508343702304348
0.00672568932753842	0.00672568932753842	0.00672568932753842	0.00672568932753842	0.00672568932753842	0.00672568932753842
0.00887698027961165	0.00887698027961165	0.00887698027961165	0.00887698027961165	0.00887698027961165	0.00887698027961165
0.0117187430186034	0.0117187430186034	0.0117187430186034	0.0117187430186034	0.0117187430186034	0.0117187430186034
0.0154693899012403	0.0154693899012403	0.0154693899012403	0.0154693899012403	0.0154693899012403	0.0154693899012403
0.0203843344662539	0.0203843344662539	0.0203843344662539	0.0203843344662539	0.0203843344662539	0.0203843344662539
0.026716660677056	0.026716660677056	0.026716660677056	0.026716660677056	0.026716660677056	0.026716660677056
0.0348003088956701	0.0348003088956701	0.0348003088956701	0.0348003088956701	0.0348003088956701	0.0348003088956701
0.0449546332758939	0.0449546332758939	0.0449546332758939	0.0449546332758939	0.0449546332758939	0.0449546332758939
0.057399979040993	0.057399979040993	0.057399979040993	0.057399979040993	0.057399979040993	0.057399979040993
0.0722576824837003	0.0722576824837003	0.0722576824837003	0.0722576824837003	0.0722576824837003	0.0722576824837003
0.0895500709662184	0.0895500709662184	0.0895500709662184	0.0895500709662184	0.0895500709662184	0.0895500709662184
0.109221278611109	0.109221278611109	0.109221278611109	0.109221278611109	0.109221278611109	0.109221278611109
0.131270212447249	0.131270212447249	0.131270212447249	0.131270212447249	0.131270212447249	0.131270212447249
0.154892349538594	0.154892349538594	0.154892349538594	0.154892349538594	0.154892349538594	0.154892349538594
0.179088320311811	0.179088320311811	0.179088320311811	0.179088320311811	0.179088320311811	0.179088320311811
0.202889256650868	0.202889256650868	0.202889256650868	0.202889256650868	0.202889256650868	0.202889256650868
0.225356791897033	0.225356791897033	0.225356791897033	0.225356791897033	0.225356791897033	0.225356791897033
0.245583060848874	0.245583060848874	0.245583060848874	0.245583060848874	0.245583060848874	0.245583060848874
0.262690699762263	0.262690699762263	0.262690699762263	0.262690699762263	0.262690699762263	0.262690699762263
0.275832846350368	0.275832846350368	0.275832846350368	0.275832846350368	0.275832846350368	0.275832846350368
0.28419313978366	0.28419313978366	0.28419313978366	0.28419313978366	0.28419313978366	0.28419313978366
0.28698515790627	0.28698515790627	0.28698515790627	0.28698515790627	0.28698515790627	0.28698515790627
0.283597251463163	0.283597251463163	0.283597251463163	0.283597251463163	0.283597251463163	0.283597251463163
0.274553242911329	0.274553242911329	0.274553242911329	0.274553242911329	0.274553242911329	0.274553242911329
0.260745456870835	0.260745456870835	0.260745456870835	0.260745456870835	0.260745456870835	0.260745456870835
0.243067003848004	0.243067003848004	0.243067003848004	0.243067003848004	0.243067003848004	0.243067003848004
0.22241178023541	0.22241178023541	0.22241178023541	0.22241178023541	0.22241178023541	0.22241178023541
0.199674468311876	0.199674468311876	0.199674468311876	0.199674468311876	0.199674468311876	0.199674468311876
0.17575053624248	0.17575053624248	0.17575053624248	0.17575053624248	0.17575053624248	0.17575053624248
0.151536238078551	0.151536238078551	0.151536238078551	0.151536238078551	0.151536238078551	0.151536238078551
0.12792861375767	0.12792861375767	0.12792861375767	0.12792861375767	0.12792861375767	0.12792861375767
0.10582548910367	0.10582548910367	0.10582548910367	0.10582548910367	0.10582548910367	0.10582548910367
0.086009442514085	0.086009442514085	0.086009442514085	0.086009442514085	0.086009442514085	0.086009442514085
0.0684221185263377	0.0684221185263377	0.0684221185263377	0.0684221185263377	0.0684221185263377	0.0684221185263377
0.0526200145138159	0.0526200145138159	0.0526200145138159	0.0526200145138159	0.0526200145138159	0.0526200145138159
0.0373891995927007	0.0373891995927007	0.0373891995927007	0.0373891995927007	0.0373891995927007	0.0373891995927007
0.0206629141656289	0.0206629141656289	0.0206629141656289	0.0206629141656289	0.0206629141656289	0.0206629141656289
-0.000478430078305891	-0.000478430078305891	-0.000478430078305891	-0.000478430078305891	-0.000478430078305891	-0.000478430078305891
-0.0293029813211533	-0.0293029813211533	-0.0293029813211533	-0.0293029813211533	-0.0293029813211533	-0.0293029813211533
-0.0662803772336074	-0.0662803772336074	-0.0662803772336074	-0.0662803772336074	-0.0662803772336074	-0.0662803772336074
-0.106995170545568	-0.106995170545568	-0.106995170545568	-0.106995170545568	-0.106995170545568	-0.106995170545568
-0.140859401538484	-0.140859401538484	-0.140859401538484	-0.140859401538484	-0.140859401538484	-0.140859401538484
-0.152060017913602	-0.152060017913602	-0.152060017913602	-0.152060017913602	-0.152060017913602	-0.152060017913602
-0.121953225993531	-0.121953225993531	-0.121953225993531	-0.121953225993531	-0.121953225993531	-0.121953225993531
-0.0348030734995091	-0.0348030734995091	-0.0348030734995091	-0.0348030734995091	-0.0348030734995091	-0.0348030734995091
0.119208969295711	0.119208969295711	0.119208969295711	0.119208969295711	0.119208969295711	0.119208969295711
0.339875918336273	0.339875918336273	0.339875918336273	0.339875918336273	0.339875918336273	0.339875918336273
0.602101693820186	0.602101693820186	0.602101693820186	0.602101693820186	0.602101693820186	0.602101693820186
0.860462516984973	0.860462516984973	0.860462516984973	0.860462516984973	0.860462516984973	0.860462516984973
1.0515285009912	1.0515285009912	1.0515285009912	1.0515285009912	1.0515285009912	1.0515285009912
1.11324543241775	1.11324543241775	1.11324543241775	1.11324543241775	1.11324543241775	1.11324543241775
1.02819901339008	1.02819901339008	1.02819901339008	1.02819901339008	1.02819901339008	1.02819901339008
0.817054393438888	0.817054393438888	0.817054393438888	0.817054393438888	0.817054393438888	0.817054393438888
0.536291208574672	0.536291208574672	0.536291208574672	0.536291208574672	0.536291208574672	0.536291208574672
0.254898623921035	0.254898623921035	0.254898623921035	0.254898623921035	0.254898623921035	0.254898623921035
0.018758527696192	0.018758527696192	0.018758527696192	0.018758527696192	0.018758527696192	0.018758527696192
-0.146260444500835	-0.146260444500835	-0.146260444500835	-0.146260444500835	-0.146260444500835	-0.146260444500835
-0.234732069720114	-0.234732069720114	-0.234732069720114	-0.234732069720114	-0.234732069720114	-0.234732069720114
-0.255251709846679	-0.255251709846679	-0.255251709846679	-0.255251709846679	-0.255251709846679	-0.255251709846679
-0.227892875369681	-0.227892875369681	-0.227892875369681	-0.227892875369681	-0.227892875369681	-0.227892875369681
-0.173316566094682	-0.173316566094682	-0.173316566094682	-0.173316566094682	-0.173316566094682	-0.173316566094682
-0.11097918232577	-0.11097918232577	-0.11097918232577	-0.11097918232577	-0.11097918232577	-0.11097918232577
-0.05788838558128	-0.05788838558128	-0.05788838558128	-0.05788838558128	-0.05788838558128	-0.05788838558128
-0.0192016054618377	-0.0192016054618377	-0.0192016054618377	-0.0192016054618377	-0.0192016054618377	-0.0192016054618377
0.00653378883900751	0.00653378883900751	0.00653378883900751	0.00653378883900751	0.00653378883900751	0.00653378883900751
0.0227237898270422	0.0227237898270422	0.0227237898270422	0.0227237898270422	0.0227237898270422	0.0227237898270422
0.0342780669336143	0.0342780669336143	0.0342780669336143	0.0342780669336143	0.0342780669336143	0.0342780669336143
0.044228834763875	0.044228834763875	0.044228834763875	0.044228834763875	0.044228834763875	0.044228834763875
0.0542380641954751	0.0542380641954751	0.0542380641954751	0.0542380641954751	0.0542380641954751	0.0542380641954751
0.065258524806176	0.065258524806176	0.065258524806176	0.065258524806176	0.065258524806176	0.065258524806176
0.0775761570019895	0.0775761570019895	0.0775761570019895	0.0775761570019895	0.0775761570019895	0.0775761570019895
0.0913376420832675	0.0913376420832675	0.0913376420832675	0.0913376420832675	0.0913376420832675	0.0913376420832675
0.106611069202865	0.106611069202865	0.106611069202865	0.106611069202865	0.106611069202865	0.106611069202865
0.123407934574402	0.123407934574402	0.123407934574402	0.123407934574402	0.123407934574402	0.123407934574402
0.141693254864599	0.141693254864599	0.141693254864599	0.141693254864599	0.141693254864599	0.141693254864599
0.16139083931173	0.16139083931173	0.16139083931173	0.16139083931173	0.16139083931173	0.16139083931173
0.182406064141245	0.182406064141245	0.182406064141245	0.182406064141245	0.182406064141245	0.182406064141245
0.20452488512959	0.20452488512959	0.20452488512959	0.20452488512959	0.20452488512959	0.20452488512959
0.227486242565415	0.227486242565415	0.227486242565415	0.227486242565415	0.227486242565415	0.227486242565415
0.251001447235752	0.251001447235752	0.251001447235752	0.251001447235752	0.251001447235752	0.251001447235752
0.274754180426012	0.274754180426012	0.274754180426012	0.274754180426012	0.274754180426012	0.274754180426012
0.29840049391999	0.29840049391999	0.29840049391999	0.29840049391999	0.29840049391999	0.29840049391999
0.321568809999857	0.321568809999857	0.321568809999857	0.321568809999857	0.321568809999857	0.321568809999857
0.343859921446169	0.343859921446169	0.343859921446169	0.343859921446169	0.343859921446169	0.343859921446169
0.36484699153786	0.36484699153786	0.36484699153786	0.36484699153786	0.36484699153786	0.36484699153786
0.384075554052246	0.384075554052246	0.384075554052246	0.384075554052246	0.384075554052246	0.384075554052246
0.40108810490349	0.40108810490349	0.40108810490349	0.40108810490349	0.40108810490349	0.40108810490349
0.415581331093706	0.415581331093706	0.415581331093706	0.415581331093706	0.415581331093706	0.415581331093706
0.427196122130555	0.427196122130555	0.427196122130555	0.427196122130555	0.427196122130555	0.427196122130555
0.435626361202622	0.435626361202622	0.435626361202622	0.435626361202622	0.435626361202622	0.435626361202622
0.440650977965388	0.440650977965388	0.440650977965388	0.440650977965388	0.440650977965388	0.440650977965388
0.442133948541225	0.442133948541225	0.442133948541225	0.442133948541225	0.442133948541225	0.442133948541225
0.440024295519404	0.440024295519404	0.440024295519404	0.440024295519404	0.440024295519404	0.440024295519404
0.434356087956088	0.434356087956088	0.434356087956088	0.434356087956088	0.434356087956088	0.434356087956088
0.425248441374337	0.425248441374337	0.425248441374337	0.425248441374337	0.425248441374337	0.425248441374337
0.412905517764104	0.412905517764104	0.412905517764104	0.412905517764104	0.412905517764104	0.412905517764104
0.397616525582237	0.397616525582237	0.397616525582237	0.397616525582237	0.397616525582237	0.397616525582237
0.379755719752482	0.379755719752482	0.379755719752482	0.379755719752482	0.379755719752482	0.379755719752482
0.359696588268171	0.359696588268171	0.359696588268171	0.359696588268171	0.359696588268171	0.359696588268171
0.337775349219269	0.337775349219269	0.337775349219269	0.337775349219269	0.337775349219269	0.337775349219269
0.31448276912397	0.31448276912397	0.31448276912397	0.31448276912397	0.31448276912397	0.31448276912397
0.290281242394332	0.290281242394332	0.290281242394332	0.290281242394332	0.290281242394332	0.290281242394332
0.265599293429188	0.265599293429188	0.265599293429188	0.265599293429188	0.265599293429188	0.265599293429188
0.240831576614143	0.240831576614143	0.240831576614143	0.240831576614143	0.240831576614143	0.240831576614143
0.216338876321578	0.216338876321578	0.216338876321578	0.216338876321578	0.216338876321578	0.216338876321578
0.192448106910644	0.192448106910644	0.192448106910644	0.192448106910644	0.192448106910644	0.192448106910644
0.169452312727267	0.169452312727267	0.169452312727267	0.169452312727267	0.169452312727267	0.169452312727267
0.147610668104146	0.147610668104146	0.147610668104146	0.147610668104146	0.147610668104146	0.147610668104146
0.127144446312083	0.127144446312083	0.127144446312083	0.127144446312083	0.127144446312083	0.127144446312083
0.108189517393876	0.108189517393876	0.108189517393876	0.108189517393876	0.108189517393876	0.108189517393876
0.0908317877154733	0.0908317877154733	0.0908317877154733	0.0908317877154733	0.0908317877154733	0.0908317877154733
0.075118168088551	0.075118168088551	0.075118168088551	0.075118168088551	0.075118168088551	0.075118168088551
0.0610519885024821	0.0610519885024821	0.0610519885024821	0.0610519885024821	0.0610519885024821	0.0610519885024821
0.0549641380595817	0.0549641380595817	0.0549641380595817	0.0549641380595817	0.0549641380595817	0.0549641380595817
0.0552773595000788	0.0552773595000788	0.0552773595000788	0.0552773595000788	0.0552773595000788	0.0552773595000788
0.0555924466485967	0.0555924466485967	0.0555924466485967	0.0555924466485967	0.0555924466485967	0.0555924466485967
0.0559109768909206	0.0559109768909206	0.0559109768909206	0.0559109768909206	0.0559109768909206	0.0559109768909206
0.0562368126117169	0.0562368126117169	0.0562368126117169	0.0562368126117169	0.0562368126117169	0.0562368126117169
0.0565784092832784	0.0565784092832784	0.0565784092832784	0.0565784092832784	0.0565784092832784	0.0565784092832784
0.0569488154655236	0.0569488154655236	0.0569488154655236	0.0569488154655236	0.0569488154655236	0.0569488154655236
0.0573645078446368	0.0573645078446368	0.0573645078446368	0.0573645078446368	0.0573645078446368	0.0573645078446368
0.05781739112642	0.05781739112642	0.05781739112642	0.05781739112642	0.05781739112642	0.05781739112642
0.058353569524743	0.058353569524743	0.058353569524743	0.058353569524743	0.058353569524743	0.058353569524743
0.0590623306327882	0.0590623306327882	0.0590623306327882	0.0590623306327882	0.0590623306327882	0.0590623306327882
0.0600544791588402	0.0600544791588402	0.0600544791588402	0.0600544791588402	0.0600544791588402	0.0600544791588402
0.0614623369262862	0.0614623369262862	0.0614623369262862	0.0614623369262862	0.0614623369262862	0.0614623369262862
0.0634397428736159	0.0634397428736159	0.0634397428736159	0.0634397428736159	0.0634397428736159	0.0634397428736159
0.0661620530544211	0.0661620530544211	0.0661620530544211	0.0661620530544211	0.0661620530544211	0.0661620530544211
0.0698261406373965	0.0698261406373965	0.0698261406373965	0.0698261406373965	0.0698261406373965	0.0698261406373965
0.0746503959063389	0.0746503959063389	0.0746503959063389	0.0746503959063389	0.0746503959063389	0.0746503959063389
0.0808747262601475	0.0808747262601475	0.0808747262601475	0.0808747262601475	0.0808747262601475	0.0808747262601475
0.0887605562128243	0.0887605562128243	0.0887605562128243	0.0887605562128243	0.0887605562128243	0.0887605562128243
0.0985908273934733	0.0985908273934733	0.0985908273934733	0.0985908273934733	0.0985908273934733	0.0985908273934733
0.110669998546301	0.110669998546301	0.110669998546301	0.110669998546301	0.110669998546301	0.110669998546301
0.125535393973337	0.125535393973337	0.125535393973337	0.125535393973337	0.125535393973337	0.125535393973337
0.143710033650688	0.143710033650688	0.143710033650688	0.143710033650688	0.143710033650688	0.143710033650688
0.164414525622747	0.164414525622747	0.164414525622747	0.164414525622747	0.164414525622747	0.164414525622747
0.186801824799286	0.186801824799286	0.186801824799286	0.186801824799286	0.186801824799286	0.186801824799286
0.210045588314327	0.210045588314327	0.210045588314327	0.210045588314327	0.210045588314327	0.210045588314327
0.233340175526146	0.233340175526146	0.233340175526146	0.233340175526146	0.233340175526146	0.233340175526146
0.25590064801727	0.25590064801727	0.25590064801727	0.25590064801727	0.25590064801727	0.25590064801727
0.276962769594481	0.276962769594481	0.276962769594481	0.276962769594481	0.276962769594481	0.276962769594481
0.295783006288811	0.295783006288811	0.295783006288811	0.295783006288811	0.295783006288811	0.295783006288811
0.311638526355546	0.311638526355546	0.311638526355546	0.311638526355546	0.311638526355546	0.311638526355546
0.323827200274225	0.323827200274225	0.323827200274225	0.323827200274225	0.323827200274225	0.323827200274225
0.331667600748638	0.331667600748638	0.331667600748638	0.331667600748638	0.331667600748638	0.331667600748638
0.334499002706829	0.334499002706829	0.334499002706829	0.334499002706829	0.334499002706829	0.334499002706829
0.331681383301095	0.331681383301095	0.331681383301095	0.331681383301095	0.331681383301095	0.331681383301095
0.322765833877399	0.322765833877399	0.322765833877399	0.322765833877399	0.322765833877399	0.322765833877399
0.308572002242698	0.308572002242698	0.308572002242698	0.308572002242698	0.308572002242698	0.308572002242698
0.290273034645427	0.290273034645427	0.290273034645427	0.290273034645427	0.290273034645427	0.290273034645427
0.268961068457166	0.268961068457166	0.268961068457166	0.268961068457166	0.268961068457166	0.268961068457166
0.245664334813394	0.245664334813394	0.245664334813394	0.245664334813394	0.245664334813394	0.245664334813394
0.221347158613483	0.221347158613483	0.221347158613483	0.221347158613483	0.221347158613483	0.221347158613483
0.196909958520704	0.196909958520704	0.196909958520704	0.196909958520704	0.196909958520704	0.196909958520704
0.173189246962225	0.173189246962225	0.173189246962225	0.173189246962225	0.173189246962225	0.173189246962225
0.15095763012911	0.15095763012911	0.15095763012911	0.15095763012911	0.15095763012911	0.15095763012911
0.130885080794255	0.130885080794255	0.130885080794255	0.130885080794255	0.130885080794255	0.130885080794255
0.113028930272858	0.113028930272858	0.113028930272858	0.113028930272858	0.113028930272858	0.113028930272858
0.096976303782821	0.096976303782821	0.096976303782821	0.096976303782821	0.096976303782821	0.096976303782821
0.0815157927130636	0.0815157927130636	0.0815157927130636	0.0815157927130636	0.0815157927130636	0.0815157927130636
0.0645256028414598	0.0645256028414598	0.0645256028414598	0.0645256028414598	0.0645256028414598	0.0645256028414598
0.0429735543348381	0.0429735543348381	0.0429735543348381	0.0429735543348381	0.0429735543348381	0.0429735543348381
0.0138280983249836	0.0138280983249836	0.0138280983249836	0.0138280983249836	0.0138280983249836	0.0138280983249836
-0.023532151610132	-0.023532151610132	-0.023532151610132	-0.023532151610132	-0.023532151610132	-0.023532151610132
-0.0645924817193482	-0.0645924817193482	-0.0645924817193482	-0.0645924817193482	-0.0645924817193482	-0.0645924817193482
-0.0986610198487724	-0.0986610198487724	-0.0986610198487724	-0.0986610198487724	-0.0986610198487724	-0.0986610198487724
-0.109906642632982	-0.109906642632982	-0.109906642632982	-0.109906642632982	-0.109906642632982	-0.109906642632982
-0.0797508679634035	-0.0797508679634035	-0.0797508679634035	-0.0797508679634035	-0.0797508679634035	-0.0797508679634035
0.00711421213332408	0.00711421213332408	0.00711421213332408	0.00711421213332408	0.00711421213332408	0.00711421213332408
0.161230660900935	0.161230660900935	0.161230660900935	0.161230660900935	0.161230660900935	0.161230660900935
0.381052010995649	0.381052010995649	0.381052010995649	0.381052010995649	0.381052010995649	0.381052010995649
0.643919579755633	0.643919579755633	0.643919579755633	0.643919579755633	0.643919579755633	0.643919579755633
0.9032096406717	0.9032096406717	0.9032096406717	0.9032096406717	0.9032096406717	0.9032096406717
1.09278528839143	1.09278528839143	1.09278528839143	1.09278528839143	1.09278528839143	1.09278528839143
1.15526744256376	1.15526744256376	1.15526744256376	1.15526744256376	1.15526744256376	1.15526744256376
1.06860413428092	1.06860413428092	1.06860413428092	1.06860413428092	1.06860413428092	1.06860413428092
0.85466473132012	0.85466473132012	0.85466473132012	0.85466473132012	0.85466473132012	0.85466473132012
0.574618041465811	0.574618041465811	0.574618041465811	0.574618041465811	0.574618041465811	0.574618041465811
0.292686423936983	0.292686423936983	0.292686423936983	0.292686423936983	0.292686423936983	0.292686423936983
0.0566087469445481	0.0566087469445481	0.0566087469445481	0.0566087469445481	0.0566087469445481	0.0566087469445481
-0.108025841950447	-0.108025841950447	-0.108025841950447	-0.108025841950447	-0.108025841950447	-0.108025841950447
-0.196662943765949	-0.196662943765949	-0.196662943765949	-0.196662943765949	-0.196662943765949	-0.196662943765949
-0.218266275941792	-0.218266275941792	-0.218266275941792	-0.218266275941792	-0.218266275941792	-0.218266275941792
-0.190458269159783	-0.190458269159783	-0.190458269159783	-0.190458269159783	-0.190458269159783	-0.190458269159783
-0.134616659788664	-0.134616659788664	-0.134616659788664	-0.134616659788664	-0.134616659788664	-0.134616659788664
-0.0733462610190097	-0.0733462610190097	-0.0733462610190097	-0.0733462610190097	-0.0733462610190097	-0.0733462610190097
-0.0204344555869361	-0.0204344555869361	-0.0204344555869361	-0.0204344555869361	-0.0204344555869361	-0.0204344555869361
0.0180766523819073	0.0180766523819073	0.0180766523819073	0.0180766523819073	0.0180766523819073	0.0180766523819073
0.0428491266153647	0.0428491266153647	0.0428491266153647	0.0428491266153647	0.0428491266153647	0.0428491266153647
0.0587749284076462	0.0587749284076462	0.0587749284076462	0.0587749284076462	0.0587749284076462	0.0587749284076462
0.0699900141756382	0.0699900141756382	0.0699900141756382	0.0699900141756382	0.0699900141756382	0.0699900141756382
0.0796022969934851	0.0796022969934851	0.0796022969934851	0.0796022969934851	0.0796022969934851	0.0796022969934851
0.0893843397316016	0.0893843397316016	0.0893843397316016	0.0893843397316016	0.0893843397316016	0.0893843397316016
0.100107501433929	0.100107501433929	0.100107501433929	0.100107501433929	0.100107501433929	0.100107501433929
0.112114861797667	0.112114861797667	0.112114861797667	0.112114861797667	0.112114861797667	0.112114861797667
0.125555832072826	0.125555832072826	0.125555832072826	0.125555832072826	0.125555832072826	0.125555832072826
0.14051441985576	0.14051441985576	0.14051441985576	0.14051441985576	0.14051441985576	0.14051441985576
0.157009229089168	0.157009229089168	0.157009229089168	0.157009229089168	0.157009229089168	0.157009229089168
0.174993737941235	0.174993737941235	0.174993737941235	0.174993737941235	0.174993737941235	0.174993737941235
0.194398329989418	0.194398329989418	0.194398329989418	0.194398329989418	0.194398329989418	0.194398329989418
0.215088184202756	0.215088184202756	0.215088184202756	0.215088184202756	0.215088184202756	0.215088184202756
0.236860482673148	0.236860482673148	0.236860482673148	0.236860482673148	0.236860482673148	0.236860482673148
0.259476456802089	0.259476456802089	0.259476456802089	0.259476456802089	0.259476456802089	0.259476456802089
0.282661387300668	0.282661387300668	0.282661387300668	0.282661387300668	0.282661387300668	0.282661387300668
0.306104604189569	0.306104604189569	0.306104604189569	0.306104604189569	0.306104604189569	0.306104604189569
0.329459486799068	0.329459486799068	0.329459486799068	0.329459486799068	0.329459486799068	0.329459486799068
0.352343463769037	0.352343463769037	0.352343463769037	0.352343463769037	0.352343463769037	0.352343463769037
0.374338013048943	0.374338013048943	0.374338013048943	0.374338013048943	0.374338013048943	0.374338013048943
0.394988661897843	0.394988661897843	0.394988661897843	0.394988661897843	0.394988661897843	0.394988661897843
0.413837425105129	0.413837425105129	0.413837425105129	0.413837425105129	0.413837425105129	0.413837425105129
0.430559544815143	0.430559544815143	0.430559544815143	0.430559544815143	0.430559544815143	0.430559544815143
0.444725600262129	0.444725600262129	0.444725600262129	0.444725600262129	0.444725600262129	0.444725600262129
0.455960430515323	0.455960430515323	0.455960430515323	0.455960430515323	0.455960430515323	0.455960430515323
0.463973387500288	0.463973387500288	0.463973387500288	0.463973387500288	0.463973387500288	0.463973387500288
0.468558335998921	0.468558335998921	0.468558335998921	0.468558335998921	0.468558335998921	0.468558335998921
0.469593653649447	0.469593653649447	0.469593653649447	0.469593653649447	0.469593653649447	0.469593653649447
0.467042230946423	0.467042230946423	0.467042230946423	0.467042230946423	0.467042230946423	0.467042230946423
0.460951471240735	0.460951471240735	0.460951471240735	0.460951471240735	0.460951471240735	0.460951471240735
0.451453290739601	0.451453290739601	0.451453290739601	0.451453290739601	0.451453290739601	0.451453290739601
0.438764118506566	0.438764118506566	0.438764118506566	0.438764118506566	0.438764118506566	0.438764118506566
0.423183534692855	0.423183534692855	0.423183534692855	0.423183534692855	0.423183534692855	0.423183534692855
0.404962627642871	0.404962627642871	0.404962627642871	0.404962627642871	0.404962627642871	0.404962627642871
0.384485029867406	0.384485029867406	0.384485029867406	0.384485029867406	0.384485029867406	0.384485029867406
0.362225659229939	0.362225659229939	0.362225659229939	0.362225659229939	0.362225659229939	0.362225659229939
0.338636695841423	0.338636695841423	0.338636695841423	0.338636695841423	0.338636695841423	0.338636695841423
0.314147582060283	0.314147582060283	0.314147582060283	0.314147582060283	0.314147582060283	0.314147582060283
0.289165022492415	0.289165022492415	0.289165022492415	0.289165022492415	0.289165022492415	0.289165022492415
0.264072983991189	0.264072983991189	0.264072983991189	0.264072983991189	0.264072983991189	0.264072983991189
0.239232695657446	0.239232695657446	0.239232695657446	0.239232695657446	0.239232695657446	0.239232695657446
0.214982648839502	0.214982648839502	0.214982648839502	0.214982648839502	0.214982648839502	0.214982648839502
0.191638597133141	0.191638597133141	0.191638597133141	0.191638597133141	0.191638597133141	0.191638597133141
0.169489412381343	0.169489412381343	0.169489412381343	0.169489412381343	0.169489412381343	0.169489412381343
0.14871959779169	0.14871959779169	0.14871959779169	0.14871959779169	0.14871959779169	0.14871959779169
0.129457455758456	0.129457455758456	0.129457455758456	0.129457455758456	0.129457455758456	0.129457455758456
0.111795300485561	0.111795300485561	0.111795300485561	0.111795300485561	0.111795300485561	0.111795300485561
0.0957775583347523	0.0957775583347523	0.0957775583347523	0.0957775583347523	0.0957775583347523	0.0957775583347523
0.0814062192904957	0.0814062192904957	0.0814062192904957	0.0814062192904957	0.0814062192904957	0.0814062192904957
0.0768355686364503	0.0768355686364503	0.0768355686364503	0.0768355686364503	0.0768355686364503	0.0768355686364503
0.076852868512803	0.076852868512803	0.076852868512803	0.076852868512803	0.076852868512803	0.076852868512803
0.0768223542891562	0.0768223542891562	0.0768223542891562	0.0768223542891562	0.0768223542891562	0.0768223542891562
0.0767976953352896	0.0767976953352896	0.0767976953352896	0.0767976953352896	0.0767976953352896	0.0767976953352896
0.0767810159674526	0.0767810159674526	0.0767810159674526	0.0767810159674526	0.0767810159674526	0.0767810159674526
0.0767770973621629	0.0767770973621629	0.0767770973621629	0.0767770973621629	0.0767770973621629	0.0767770973621629
0.0767991669024748	0.0767991669024748	0.0767991669024748	0.0767991669024748	0.0767991669024748	0.0767991669024748
0.0768688981779788	0.0768688981779788	0.0768688981779788	0.0768688981779788	0.0768688981779788	0.0768688981779788
0.0770164109848018	0.0770164109848018	0.0770164109848018	0.0770164109848018	0.0770164109848018	0.0770164109848018
0.0772767987461489	0.0772767987461489	0.0772767987461489	0.0772767987461489	0.0772767987461489	0.0772767987461489
0.0776242271936798	0.0776242271936798	0.0776242271936798	0.0776242271936798	0.0776242271936798	0.0776242271936798
0.0781796513170936	0.0781796513170936	0.0781796513170936	0.0781796513170936	0.0781796513170936	0.0781796513170936
0.0791329544036717	0.0791329544036717	0.0791329544036717	0.0791329544036717	0.0791329544036717	0.0791329544036717
0.0806808957384822	0.0806808957384822	0.0806808957384822	0.0806808957384822	0.0806808957384822	0.0806808957384822
0.0830271106043796	0.0830271106043796	0.0830271106043796	0.0830271106043796	0.0830271106043796	0.0830271106043796
0.0863821102820051	0.0863821102820051	0.0863821102820051	0.0863821102820051	0.0863821102820051	0.0863821102820051
0.0909632820497861	0.0909632820497861	0.0909632820497861	0.0909632820497861	0.0909632820497861	0.0909632820497861
0.0969948891839369	0.0969948891839369	0.0969948891839369	0.0969948891839369	0.0969948891839369	0.0969948891839369
0.104708070958458	0.104708070958458	0.104708070958458	0.104708070958458	0.104708070958458	0.104708070958458
0.114340842645137	0.114340842645137	0.114340842645137	0.114340842645137	0.114340842645137	0.114340842645137
0.126138095513546	0.126138095513546	0.126138095513546	0.126138095513546	0.126138095513546	0.126138095513546
0.140351596831047	0.140351596831047	0.140351596831047	0.140351596831047	0.140351596831047	0.140351596831047
0.157165782081924	0.157165782081924	0.157165782081924	0.157165782081924	0.157165782081924	0.157165782081924
0.176367319482194	0.176367319482194	0.176367319482194	0.176367319482194	0.176367319482194	0.176367319482194
0.19754719971877	0.19754719971877	0.19754719971877	0.19754719971877	0.19754719971877	0.19754719971877
0.22015905718987	0.22015905718987	0.22015905718987	0.22015905718987	0.22015905718987	0.22015905718987
0.243516582690418	0.243516582690418	0.243516582690418	0.243516582690418	0.243516582690418	0.243516582690418
0.266793523412043	0.266793523412043	0.266793523412043	0.266793523412043	0.266793523412043	0.266793523412043
0.289023682943082	0.289023682943082	0.289023682943082	0.289023682943082	0.289023682943082	0.289023682943082
0.309100921268576	0.309100921268576	0.309100921268576	0.309100921268576	0.309100921268576	0.309100921268576
0.325797089664665	0.325797089664665	0.325797089664665	0.325797089664665	0.325797089664665	0.325797089664665
0.338165745773163	0.338165745773163	0.338165745773163	0.338165745773163	0.338165745773163	0.338165745773163
0.345501564211912	0.345501564211912	0.345501564211912	0.345501564211912	0.345501564211912	0.345501564211912
0.347339399559827	0.347339399559827	0.347339399559827	0.347339399559827	0.347339399559827	0.347339399559827
0.343519905831501	0.343519905831501	0.343519905831501	0.343519905831501	0.343519905831501	0.343519905831501
0.33418953647721	0.33418953647721	0.33418953647721	0.33418953647721	0.33418953647721	0.33418953647721
0.319800544382911	0.319800544382911	0.319800544382911	0.319800544382911	0.319800544382911	0.319800544382911
0.301110981870242	0.301110981870242	0.301110981870242	0.301110981870242	0.301110981870242	0.301110981870242
0.279184700696523	0.279184700696523	0.279184700696523	0.279184700696523	0.279184700696523	0.279184700696523
0.255118044660252	0.255118044660252	0.255118044660252	0.255118044660252	0.255118044660252	0.255118044660252
0.229956592285618	0.229956592285618	0.229956592285618	0.229956592285618	0.229956592285618	0.229956592285618
0.204970130225607	0.204970130225607	0.204970130225607	0.204970130225607	0.204970130225607	0.204970130225607
0.181106648536326	0.181106648536326	0.181106648536326	0.181106648536326	0.181106648536326	0.181106648536326
0.158983728768732	0.158983728768732	0.158983728768732	0.158983728768732	0.158983728768732	0.158983728768732
0.13888854396864	0.13888854396864	0.13888854396864	0.13888854396864	0.13888854396864	0.13888854396864
0.120777858676718	0.120777858676718	0.120777858676718	0.120777858676718	0.120777858676718	0.120777858676718
0.104278028928486	0.104278028928486	0.104278028928486	0.104278028928486	0.104278028928486	0.104278028928486
0.0885534284677786	0.0885534284677786	0.0885534284677786	0.0885534284677786	0.0885534284677786	0.0885534284677786
0.0710579970134382	0.0710579970134382	0.0710579970134382	0.0710579970134382	0.0710579970134382	0.0710579970134382
0.0486771733686546	0.0486771733686546	0.0486771733686546	0.0486771733686546	0.0486771733686546	0.0486771733686546
0.018914070170701	0.018914070170701	0.018914070170701	0.018914070170701	0.018914070170701	0.018914070170701
-0.0190771851137465	-0.0190771851137465	-0.0190771851137465	-0.0190771851137465	-0.0190771851137465	-0.0190771851137465
-0.0602823973979218	-0.0602823973979218	-0.0602823973979218	-0.0602823973979218	-0.0602823973979218	-0.0602823973979218
-0.0940336980649832	-0.0940336980649832	-0.0940336980649832	-0.0940336980649832	-0.0940336980649832	-0.0940336980649832
-0.104516611747983	-0.104516611747983	-0.104516611747983	-0.104516611747983	-0.104516611747983	-0.104516611747983
-0.0735994066364036	-0.0735994066364036	-0.0735994066364036	-0.0735994066364036	-0.0735994066364036	-0.0735994066364036
0.0156379004061722	0.0156379004061722	0.0156379004061722	0.0156379004061722	0.0156379004061722	0.0156379004061722
0.171941708219339	0.171941708219339	0.171941708219339	0.171941708219339	0.171941708219339	0.171941708219339
0.394736766026813	0.394736766026813	0.394736766026813	0.394736766026813	0.394736766026813	0.394736766026813
0.659338325653005	0.659338325653005	0.659338325653005	0.659338325653005	0.659338325653005	0.659338325653005
0.912483933495487	0.912483933495487	0.912483933495487	0.912483933495487	0.912483933495487	0.912483933495487
1.09716796666595	1.09716796666595	1.09716796666595	1.09716796666595	1.09716796666595	1.09716796666595
1.15471096765679	1.15471096765679	1.15471096765679	1.15471096765679	1.15471096765679	1.15471096765679
1.05948211412759	1.05948211412759	1.05948211412759	1.05948211412759	1.05948211412759	1.05948211412759
0.845944685876264	0.845944685876264	0.845944685876264	0.845944685876264	0.845944685876264	0.845944685876264
0.565833063364678	0.565833063364678	0.565833063364678	0.565833063364678	0.565833063364678	0.565833063364678
0.28330205211144	0.28330205211144	0.28330205211144	0.28330205211144	0.28330205211144	0.28330205211144
0.049877321246391	0.049877321246391	0.049877321246391	0.049877321246391	0.049877321246391	0.049877321246391
-0.113309623600293	-0.113309623600293	-0.113309623600293	-0.113309623600293	-0.113309623600293	-0.113309623600293
-0.200238042623294	-0.200238042623294	-0.200238042623294	-0.200238042623294	-0.200238042623294	-0.200238042623294
-0.219610428940655	-0.219610428940655	-0.219610428940655	-0.219610428940655	-0.219610428940655	-0.219610428940655
-0.189773356745197	-0.189773356745197	-0.189773356745197	-0.189773356745197	-0.189773356745197	-0.189773356745197
-0.134589458430454	-0.134589458430454	-0.134589458430454	-0.134589458430454	-0.134589458430454	-0.134589458430454
-0.0739688401085944	-0.0739688401085944	-0.0739688401085944	-0.0739688401085944	-0.0739688401085944	-0.0739688401085944
-0.0217966769457459	-0.0217966769457459	-0.0217966769457459	-0.0217966769457459	-0.0217966769457459	-0.0217966769457459
0.0152758561446095	0.0152758561446095	0.0152758561446095	0.0152758561446095	0.0152758561446095	0.0152758561446095
0.0396750186785428	0.0396750186785428	0.0396750186785428	0.0396750186785428	0.0396750186785428	0.0396750186785428
0.0553882795107395	0.0553882795107395	0.0553882795107395	0.0553882795107395	0.0553882795107395	0.0553882795107395
0.066163404722803	0.066163404722803	0.066163404722803	0.066163404722803	0.066163404722803	0.066163404722803
0.0754016251687105	0.0754016251687105	0.0754016251687105	0.0754016251687105	0.0754016251687105	0.0754016251687105
0.0848581413886954	0.0848581413886954	0.0848581413886954	0.0848581413886954	0.0848581413886954	0.0848581413886954
0.0952368845352995	0.0952368845352995	0.0952368845352995	0.0952368845352995	0.0952368845352995	0.0952368845352995
0.106955170341301	0.106955170341301	0.106955170341301	0.106955170341301	0.106955170341301	0.106955170341301
0.12013687073918	0.12013687073918	0.12013687073918	0.12013687073918	0.12013687073918	0.12013687073918
0.134821869269391	0.134821869269391	0.134821869269391	0.134821869269391	0.134821869269391	0.134821869269391
0.151031060594477	0.151031060594477	0.151031060594477	0.151031060594477	0.151031060594477	0.151031060594477
0.168730425060998	0.168730425060998	0.168730425060998	0.168730425060998	0.168730425060998	0.168730425060998
0.187836498524877	0.187836498524877	0.187836498524877	0.187836498524877	0.187836498524877	0.187836498524877
0.208216372351404	0.208216372351404	0.208216372351404	0.208216372351404	0.208216372351404	0.208216372351404
0.229687693415234	0.229687693415234	0.229687693415234	0.229687693415234	0.229687693415234	0.229687693415234
0.252036820997787	0.252036820997787	0.252036820997787	0.252036820997787	0.252036820997787	0.252036820997787
0.275033688203756	0.275033688203756	0.275033688203756	0.275033688203756	0.275033688203756	0.275033688203756
0.298278214933889	0.298278214933889	0.298278214933889	0.298278214933889	0.298278214933889	0.298278214933889
0.32135640528344	0.32135640528344	0.32135640528344	0.32135640528344	0.32135640528344	0.32135640528344
0.343860022324333	0.343860022324333	0.343860022324333	0.343860022324333	0.343860022324333	0.343860022324333
0.365386588105159	0.365386588105159	0.365386588105159	0.365386588105159	0.365386588105159	0.365386588105159
0.385539383651177	0.385539383651177	0.385539383651177	0.385539383651177	0.385539383651177	0.385539383651177
0.403927448964314	0.403927448964314	0.403927448964314	0.403927448964314	0.403927448964314	0.403927448964314
0.420165583023164	0.420165583023164	0.420165583023164	0.420165583023164	0.420165583023164	0.420165583023164
0.433874343782992	0.433874343782992	0.433874343782992	0.433874343782992	0.433874343782992	0.433874343782992
0.444680048175728	0.444680048175728	0.444680048175728	0.444680048175728	0.444680048175728	0.444680048175728
0.452268739563699	0.452268739563699	0.452268739563699	0.452268739563699	0.452268739563699	0.452268739563699
0.456477191973586	0.456477191973586	0.456477191973586	0.456477191973586	0.456477191973586	0.456477191973586
0.457187189515202	0.457187189515202	0.457187189515202	0.457187189515202	0.457187189515202	0.457187189515202
0.454354403243872	0.454354403243872	0.454354403243872	0.454354403243872	0.454354403243872	0.454354403243872
0.448009206131235	0.448009206131235	0.448009206131235	0.448009206131235	0.448009206131235	0.448009206131235
0.43825667306525	0.43825667306525	0.43825667306525	0.43825667306525	0.43825667306525	0.43825667306525
0.425276580850189	0.425276580850189	0.425276580850189	0.425276580850189	0.425276580850189	0.425276580850189
0.409323408206641	0.409323408206641	0.409323408206641	0.409323408206641	0.409323408206641	0.409323408206641
0.39072633577151	0.39072633577151	0.39072633577151	0.39072633577151	0.39072633577151	0.39072633577151
0.36988924609802	0.36988924609802	0.36988924609802	0.36988924609802	0.36988924609802	0.36988924609802
0.347290068588604	0.347290068588604	0.347290068588604	0.347290068588604	0.347290068588604	0.347290068588604
0.323323392567153	0.323323392567153	0.323323392567153	0.323323392567153	0.323323392567153	0.323323392567153
0.298401582992988	0.298401582992988	0.298401582992988	0.298401582992988	0.298401582992988	0.298401582992988
0.272998146250714	0.272998146250714	0.272998146250714	0.272998146250714	0.272998146250714	0.272998146250714
0.247539010071955	0.247539010071955	0.247539010071955	0.247539010071955	0.247539010071955	0.247539010071955
0.222402523535357	0.222402523535357	0.222402523535357	0.222402523535357	0.222402523535357	0.222402523535357
0.197919457066583	0.197919457066583	0.197919457066583	0.197919457066583	0.197919457066583	0.197919457066583
0.174373002438315	0.174373002438315	0.174373002438315	0.174373002438315	0.174373002438315	0.174373002438315
0.151998772770257	0.151998772770257	0.151998772770257	0.151998772770257	0.151998772770257	0.151998772770257
0.130984802529131	0.130984802529131	0.130984802529131	0.130984802529131	0.130984802529131	0.130984802529131
0.111471547528677	0.111471547528677	0.111471547528677	0.111471547528677	0.111471547528677	0.111471547528677
0.0935521227294841	0.0935521227294841	0.0935521227294841	0.0935521227294841	0.0935521227294841	0.0935521227294841
0.0772760975386024	0.0772760975386024	0.0772760975386024	0.0772760975386024	0.0772760975386024	0.0772760975386024
0.0626472940813089	0.0626472940813089	0.0626472940813089	0.0626472940813089	0.0626472940813089	0.0626472940813089
0.0578472743926051	0.0578472743926051	0.0578472743926051	0.0578472743926051	0.0578472743926051	0.0578472743926051
0.0583489185666841	0.0583489185666841	0.0583489185666841	0.0583489185666841	0.0583489185666841	0.0583489185666841
0.0578455019719196	0.0578455019719196	0.0578455019719196	0.0578455019719196	0.0578455019719196	0.0578455019719196
0.0575331282282798	0.0575331282282798	0.0575331282282798	0.0575331282282798	0.0575331282282798	0.0575331282282798
0.0572372371257162	0.0572372371257162	0.0572372371257162	0.0572372371257162	0.0572372371257162	0.0572372371257162
0.056971044994604	0.056971044994604	0.056971044994604	0.056971044994604	0.056971044994604	0.056971044994604
0.0567269011758908	0.0567269011758908	0.0567269011758908	0.0567269011758908	0.0567269011758908	0.0567269011758908
0.0565151725681422	0.0565151725681422	0.0565151725681422	0.0565151725681422	0.0565151725681422	0.0565151725681422
0.0563661814922324	0.0563661814922324	0.0563661814922324	0.0563661814922324	0.0563661814922324	0.0563661814922324
0.0563302056913438	0.0563302056913438	0.0563302056913438	0.0563302056913438	0.0563302056913438	0.0563302056913438
0.0564774783309676	0.0564774783309676	0.0564774783309676	0.0564774783309676	0.0564774783309676	0.0564774783309676
0.0568981879989032	0.0568981879989032	0.0568981879989032	0.0568981879989032	0.0568981879989032	0.0568981879989032
0.0577024787052582	0.0577024787052582	0.0577024787052582	0.0577024787052582	0.0577024787052582	0.0577024787052582
0.059015588697818	0.059015588697818	0.059015588697818	0.059015588697818	0.059015588697818	0.059015588697818
0.0609535104103205	0.0609535104103205	0.0609535104103205	0.0609535104103205	0.0609535104103205	0.0609535104103205
0.0638180626242129	0.0638180626242129	0.0638180626242129	0.0638180626242129	0.0638180626242129	0.0638180626242129
0.0679321557900689	0.0679321557900689	0.0679321557900689	0.0679321557900689	0.0679321557900689	0.0679321557900689
0.0735854707211747	0.0735854707211747	0.0735854707211747	0.0735854707211747	0.0735854707211747	0.0735854707211747
0.081034458593529	0.081034458593529	0.081034458593529	0.081034458593529	0.081034458593529	0.081034458593529
0.0905023409458432	0.0905023409458432	0.0905023409458432	0.0905023409458432	0.0905023409458432	0.0905023409458432
0.102179109679541	0.102179109679541	0.102179109679541	0.102179109679541	0.102179109679541	0.102179109679541
0.116221527058758	0.116221527058758	0.116221527058758	0.116221527058758	0.116221527058758	0.116221527058758
0.132752236937737	0.132752236937737	0.132752236937737	0.132752236937737	0.132752236937737	0.132752236937737
0.15171751709986	0.15171751709986	0.15171751709986	0.15171751709986	0.15171751709986	0.15171751709986
0.172693653890112	0.172693653890112	0.172693653890112	0.172693653890112	0.172693653890112	0.172693653890112
0.195098240596314	0.195098240596314	0.195098240596314	0.195098240596314	0.195098240596314	0.195098240596314
0.218222767610445	0.218222767610445	0.218222767610445	0.218222767610445	0.218222767610445	0.218222767610445
0.241232622428645	0.241232622428645	0.241232622428645	0.241232622428645	0.241232622428645	0.241232622428645
0.263167089651208	0.263167089651208	0.263167089651208	0.263167089651208	0.263167089651208	0.263167089651208
0.282939350982592	0.282939350982592	0.282939350982592	0.282939350982592	0.282939350982592	0.282939350982592
0.299346891539978	0.299346891539978	0.299346891539978	0.299346891539978	0.299346891539978	0.299346891539978
0.311426145909369	0.311426145909369	0.311426145909369	0.311426145909369	0.311426145909369	0.311426145909369
0.318466075528794	0.318466075528794	0.318466075528794	0.318466075528794	0.318466075528794	0.318466075528794
0.31999589831555	0.31999589831555	0.31999589831555	0.31999589831555	0.31999589831555	0.31999589831555
0.315858322321404	0.315858322321404	0.315858322321404	0.315858322321404	0.315858322321404	0.315858322321404
0.306209545732597	0.306209545732597	0.306209545732597	0.306209545732597	0.306209545732597	0.306209545732597
0.291519256869842	0.291519256869842	0.291519256869842	0.291519256869842	0.291519256869842	0.291519256869842
0.272570634188325	0.272570634188325	0.272570634188325	0.272570634188325	0.272570634188325	0.272570634188325
0.250437234135601	0.250437234135601	0.250437234135601	0.250437234135601	0.250437234135601	0.250437234135601
0.22608234547021	0.22608234547021	0.22608234547021	0.22608234547021	0.22608234547021	0.22608234547021
0.200758151743792	0.200758151743792	0.200758151743792	0.200758151743792	0.200758151743792	0.200758151743792
0.17562127835919	0.17562127835919	0.17562127835919	0.17562127835919	0.17562127835919	0.17562127835919
0.151549259144412	0.151549259144412	0.151549259144412	0.151549259144412	0.151549259144412	0.151549259144412
0.12914053635263	0.12914053635263	0.12914053635263	0.12914053635263	0.12914053635263	0.12914053635263
0.10871446066218	0.10871446066218	0.10871446066218	0.10871446066218	0.10871446066218	0.10871446066218
0.0903112911765636	0.0903112911765636	0.0903112911765636	0.0903112911765636	0.0903112911765636	0.0903112911765636
0.0736861921303469	0.0736861921303469	0.0736861921303469	0.0736861921303469	0.0736861921303469	0.0736861921303469
0.0577164114545108	0.0577164114545108	0.0577164114545108	0.0577164114545108	0.0577164114545108	0.0577164114545108
0.0399341177968644	0.0399341177968644	0.0399341177968644	0.0399341177968644	0.0399341177968644	0.0399341177968644
0.0174691342112112	0.0174691342112112	0.0174691342112112	0.0174691342112112	0.0174691342112112	0.0174691342112112
-0.01260224601956	-0.01260224601956	-0.01260224601956	-0.01260224601956	-0.01260224601956	-0.01260224601956
-0.0507311387070645	-0.0507311387070645	-0.0507311387070645	-0.0507311387070645	-0.0507311387070645	-0.0507311387070645
-0.0922614406076214	-0.0922614406076214	-0.0922614406076214	-0.0922614406076214	-0.0922614406076214	-0.0922614406076214
-0.126341550751967	-0.126341550751967	-0.126341550751967	-0.126341550751967	-0.126341550751967	-0.126341550751967
-0.137151700438983	-0.137151700438983	-0.137151700438983	-0.137151700438983	-0.137151700438983	-0.137151700438983
-0.105713863787954	-0.105713863787954	-0.105713863787954	-0.105713863787954	-0.105713863787954	-0.105713863787954
-0.0165630456873955	-0.0165630456873955	-0.0165630456873955	-0.0165630456873955	-0.0165630456873955	-0.0165630456873955
0.139320302609703	0.139320302609703	0.139320302609703	0.139320302609703	0.139320302609703	0.139320302609703
0.361806268892143	0.361806268892143	0.361806268892143	0.361806268892143	0.361806268892143	0.361806268892143
0.62428548742079	0.62428548742079	0.62428548742079	0.62428548742079	0.62428548742079	0.62428548742079
0.879684007105105	0.879684007105105	0.879684007105105	0.879684007105105	0.879684007105105	0.879684007105105
1.06599205128056	1.06599205128056	1.06599205128056	1.06599205128056	1.06599205128056	1.06599205128056
1.12059820761644	1.12059820761644	1.12059820761644	1.12059820761644	1.12059820761644	1.12059820761644
1.02864808661224	1.02864808661224	1.02864808661224	1.02864808661224	1.02864808661224	1.02864808661224
0.813290795643084	0.813290795643084	0.813290795643084	0.813290795643084	0.813290795643084	0.813290795643084
0.53020272006503	0.53020272006503	0.53020272006503	0.53020272006503	0.53020272006503	0.53020272006503
0.249235501125829	0.249235501125829	0.249235501125829	0.249235501125829	0.249235501125829	0.249235501125829
0.014858675021874	0.014858675021874	0.014858675021874	0.014858675021874	0.014858675021874	0.014858675021874
-0.148061974875436	-0.148061974875436	-0.148061974875436	-0.148061974875436	-0.148061974875436	-0.148061974875436
-0.234396233101652	-0.234396233101652	-0.234396233101652	-0.234396233101652	-0.234396233101652	-0.234396233101652
-0.253131810274988	-0.253131810274988	-0.253131810274988	-0.253131810274988	-0.253131810274988	-0.253131810274988
-0.224504042295854	-0.224504042295854	-0.224504042295854	-0.224504042295854	-0.224504042295854	-0.224504042295854
-0.170096916465773	-0.170096916465773	-0.170096916465773	-0.170096916465773	-0.170096916465773	-0.170096916465773
-0.109002371204076	-0.109002371204076	-0.109002371204076	-0.109002371204076	-0.109002371204076	-0.109002371204076
-0.0572197662836363	-0.0572197662836363	-0.0572197662836363	-0.0572197662836363	-0.0572197662836363	-0.0572197662836363
-0.0201219007899597	-0.0201219007899597	-0.0201219007899597	-0.0201219007899597	-0.0201219007899597	-0.0201219007899597
0.00431109245364719	0.00431109245364719	0.00431109245364719	0.00431109245364719	0.00431109245364719	0.00431109245364719
0.0194993989441673	0.0194993989441673	0.0194993989441673	0.0194993989441673	0.0194993989441673	0.0194993989441673
0.0300345400503005	0.0300345400503005	0.0300345400503005	0.0300345400503005	0.0300345400503005	0.0300345400503005
0.0391700385310159	0.0391700385310159	0.0391700385310159	0.0391700385310159	0.0391700385310159	0.0391700385310159
0.0483957492731328	0.0483957492731328	0.0483957492731328	0.0483957492731328	0.0483957492731328	0.0483957492731328
0.0586315198074298	0.0586315198074298	0.0586315198074298	0.0586315198074298	0.0586315198074298	0.0586315198074298
0.0702101336537558	0.0702101336537558	0.0702101336537558	0.0702101336537558	0.0702101336537558	0.0702101336537558
0.0832292978267076	0.0832292978267076	0.0832292978267076	0.0832292978267076	0.0832292978267076	0.0832292978267076
0.0977652204711122	0.0977652204711122	0.0977652204711122	0.0977652204711122	0.0977652204711122	0.0977652204711122
0.11382620501789	0.11382620501789	0.11382620501789	0.11382620501789	0.11382620501789	0.11382620501789
0.131374792072292	0.131374792072292	0.131374792072292	0.131374792072292	0.131374792072292	0.131374792072292
0.150327759413898	0.150327759413898	0.150327759413898	0.150327759413898	0.150327759413898	0.150327759413898
0.170585251135063	0.170585251135063	0.170585251135063	0.170585251135063	0.170585251135063	0.170585251135063
0.191958031941112	0.191958031941112	0.191958031941112	0.191958031941112	0.191958031941112	0.191958031941112
0.214171157711738	0.214171157711738	0.214171157711738	0.214171157711738	0.214171157711738	0.214171157711738
0.236925217789609	0.236925217789609	0.236925217789609	0.236925217789609	0.236925217789609	0.236925217789609
0.259896351272452	0.259896351272452	0.259896351272452	0.259896351272452	0.259896351272452	0.259896351272452
0.282736247013051	0.282736247013051	0.282736247013051	0.282736247013051	0.282736247013051	0.282736247013051
0.305072143619249	0.305072143619249	0.305072143619249	0.305072143619249	0.305072143619249	0.305072143619249
0.326506829453947	0.326506829453947	0.326506829453947	0.326506829453947	0.326506829453947	0.326506829453947
0.346618642635105	0.346618642635105	0.346618642635105	0.346618642635105	0.346618642635105	0.346618642635105
0.364961471035741	0.364961471035741	0.364961471035741	0.364961471035741	0.364961471035741	0.364961471035741
0.381073710845442	0.381073710845442	0.381073710845442	0.381073710845442	0.381073710845442	0.381073710845442
0.394635755158826	0.394635755158826	0.394635755158826	0.394635755158826	0.394635755158826	0.394635755158826
0.405311099178118	0.405311099178118	0.405311099178118	0.405311099178118	0.405311099178118	0.405311099178118
0.412796984243097	0.412796984243097	0.412796984243097	0.412796984243097	0.412796984243097	0.412796984243097
0.416875449342126	0.416875449342126	0.416875449342126	0.416875449342126	0.416875449342126	0.416875449342126
0.417413331112152	0.417413331112152	0.417413331112152	0.417413331112152	0.417413331112152	0.417413331112152
0.414362263838706	0.414362263838706	0.414362263838706	0.414362263838706	0.414362263838706	0.414362263838706
0.407758679455904	0.407758679455904	0.407758679455904	0.407758679455904	0.407758679455904	0.407758679455904
0.397723807546444	0.397723807546444	0.397723807546444	0.397723807546444	0.397723807546444	0.397723807546444
0.38446367534161	0.38446367534161	0.38446367534161	0.38446367534161	0.38446367534161	0.38446367534161
0.36826910772127	0.36826910772127	0.36826910772127	0.36826910772127	0.36826910772127	0.36826910772127
0.349515727213875	0.349515727213875	0.349515727213875	0.349515727213875	0.349515727213875	0.349515727213875
0.328599079561289	0.328599079561289	0.328599079561289	0.328599079561289	0.328599079561289	0.328599079561289
0.305845771956652	0.305845771956652	0.305845771956652	0.305845771956652	0.305845771956652	0.305845771956652
0.281742705800239	0.281742705800239	0.281742705800239	0.281742705800239	0.281742705800239	0.281742705800239
0.256754289641222	0.256754289641222	0.256754289641222	0.256754289641222	0.256754289641222	0.256754289641222
0.231310126597243	0.231310126597243	0.231310126597243	0.231310126597243	0.231310126597243	0.231310126597243
0.205805014354419	0.205805014354419	0.205805014354419	0.205805014354419	0.205805014354419	0.205805014354419
0.180598945167341	0.180598945167341	0.180598945167341	0.180598945167341	0.180598945167341	0.180598945167341
0.156017105859073	0.156017105859073	0.156017105859073	0.156017105859073	0.156017105859073	0.156017105859073
0.132349877821152	0.132349877821152	0.132349877821152	0.132349877821152	0.132349877821152	0.132349877821152
0.109852837013588	0.109852837013588	0.109852837013588	0.109852837013588	0.109852837013588	0.109852837013588
0.0887427029202021	0.0887427029202021	0.0887427029202021	0.0887427029202021	0.0887427029202021	0.0887427029202021
0.0691528729292591	0.0691528729292591	0.0691528729292591	0.0691528729292591	0.0691528729292591	0.0691528729292591
0.0511676006309154	0.0511676006309154	0.0511676006309154	0.0511676006309154	0.0511676006309154	0.0511676006309154
0.0348309407682569	0.0348309407682569	0.0348309407682569	0.0348309407682569	0.0348309407682569	0.0348309407682569
0.02014343193607	0.02014343193607	0.02014343193607	0.02014343193607	0.02014343193607	0.02014343193607
0.0148899909719731	0.0148899909719731	0.0148899909719731	0.0148899909719731	0.0148899909719731	0.0148899909719731
0.0144904665067732	0.0144904665067732	0.0144904665067732	0.0144904665067732	0.0144904665067732	0.0144904665067732
0.0140959197144842	0.0140959197144842	0.0140959197144842	0.0140959197144842	0.0140959197144842	0.0140959197144842
0.013707783888692	0.013707783888692	0.013707783888692	0.013707783888692	0.013707783888692	0.013707783888692
0.0133302084695779	0.0133302084695779	0.0133302084695779	0.0133302084695779	0.0133302084695779	0.0133302084695779
0.0129719813136832	0.0129719813136832	0.0129719813136832	0.0129719813136832	0.0129719813136832	0.0129719813136832
0.0126465286939096	0.0126465286939096	0.0126465286939096	0.0126465286939096	0.0126465286939096	0.0126465286939096
0.0123725652045093	0.0123725652045093	0.0123725652045093	0.0123725652045093	0.0123725652045093	0.0123725652045093
0.0121887672112371	0.0121887672112371	0.0121887672112371	0.0121887672112371	0.0121887672112371	0.0121887672112371
0.0121253935409775	0.0121253935409775	0.0121253935409775	0.0121253935409775	0.0121253935409775	0.0121253935409775
0.0122327540016255	0.0122327540016255	0.0122327540016255	0.0122327540016255	0.0122327540016255	0.0122327540016255
0.0125952417882805	0.0125952417882805	0.0125952417882805	0.0125952417882805	0.0125952417882805	0.0125952417882805
0.0133313334832453	0.0133313334832453	0.0133313334832453	0.0133313334832453	0.0133313334832453	0.0133313334832453
0.0145935890560264	0.0145935890560264	0.0145935890560264	0.0145935890560264	0.0145935890560264	0.0145935890560264
0.0165686518633343	0.0165686518633343	0.0165686518633343	0.0165686518633343	0.0165686518633343	0.0165686518633343
0.019477248649083	0.019477248649083	0.019477248649083	0.019477248649083	0.019477248649083	0.019477248649083
0.0235343545201829	0.0235343545201829	0.0235343545201829	0.0235343545201829	0.0235343545201829	0.0235343545201829
0.0289991843763934	0.0289991843763934	0.0289991843763934	0.0289991843763934	0.0289991843763934	0.0289991843763934
0.0362891807935522	0.0362891807935522	0.0362891807935522	0.0362891807935522	0.0362891807935522	0.0362891807935522
0.0457212123350659	0.0457212123350659	0.0457212123350659	0.0457212123350659	0.0457212123350659	0.0457212123350659
0.0574986422019335	0.0574986422019335	0.0574986422019335	0.0574986422019335	0.0574986422019335	0.0574986422019335
0.0717113282327454	0.0717113282327454	0.0717113282327454	0.0717113282327454	0.0717113282327454	0.0717113282327454
0.0883356229036846	0.0883356229036846	0.0883356229036846	0.0883356229036846	0.0883356229036846	0.0883356229036846
0.107234373328525	0.107234373328525	0.107234373328525	0.107234373328525	0.107234373328525	0.107234373328525
0.128161446087892	0.128161446087892	0.128161446087892	0.128161446087892	0.128161446087892	0.128161446087892
0.150793431672703	0.150793431672703	0.150793431672703	0.150793431672703	0.150793431672703	0.150793431672703
0.17418432156309	0.17418432156309	0.17418432156309	0.17418432156309	0.17418432156309	0.17418432156309
0.197239215893842	0.197239215893842	0.197239215893842	0.197239215893842	0.197239215893842	0.197239215893842
0.218921278226846	0.218921278226846	0.218921278226846	0.218921278226846	0.218921278226846	0.218921278226846
0.238251735551087	0.238251735551087	0.238251735551087	0.238251735551087	0.238251735551087	0.238251735551087
0.25430987828265	0.25430987828265	0.25430987828265	0.25430987828265	0.25430987828265	0.25430987828265
0.266233060264717	0.266233060264717	0.266233060264717	0.266233060264717	0.266233060264717	0.266233060264717
0.27321669876757	0.27321669876757	0.27321669876757	0.27321669876757	0.27321669876757	0.27321669876757
0.274505691614611	0.274505691614611	0.274505691614611	0.274505691614611	0.274505691614611	0.274505691614611
0.269825641086807	0.269825641086807	0.269825641086807	0.269825641086807	0.269825641086807	0.269825641086807
0.259749755286234	0.259749755286234	0.259749755286234	0.259749755286234	0.259749755286234	0.259749755286234
0.2449816507563	0.2449816507563	0.2449816507563	0.2449816507563	0.2449816507563	0.2449816507563
0.226291585407209	0.226291585407209	0.226291585407209	0.226291585407209	0.226291585407209	0.226291585407209
0.204516458515962	0.204516458515962	0.204516458515962	0.204516458515962	0.204516458515962	0.204516458515962
0.180559810726351	0.180559810726351	0.180559810726351	0.180559810726351	0.180559810726351	0.180559810726351
0.155391824048966	0.155391824048966	0.155391824048966	0.155391824048966	0.155391824048966	0.155391824048966
0.130049321861191	0.130049321861191	0.130049321861191	0.130049321861191	0.130049321861191	0.130049321861191
0.105635768907206	0.105635768907206	0.105635768907206	0.105635768907206	0.105635768907206	0.105635768907206
0.0830109694468374	0.0830109694468374	0.0830109694468374	0.0830109694468374	0.0830109694468374	0.0830109694468374
0.0624926655394629	0.0624926655394629	0.0624926655394629	0.0624926655394629	0.0624926655394629	0.0624926655394629
0.0443297564205799	0.0443297564205799	0.0443297564205799	0.0443297564205799	0.0443297564205799	0.0443297564205799
0.0279602165472559	0.0279602165472559	0.0279602165472559	0.0279602165472559	0.0279602165472559	0.0279602165472559
0.0119871145076491	0.0119871145076491	0.0119871145076491	0.0119871145076491	0.0119871145076491	0.0119871145076491
-0.00582138697899059	-0.00582138697899059	-0.00582138697899059	-0.00582138697899059	-0.00582138697899059	-0.00582138697899059
-0.028192436997649	-0.028192436997649	-0.028192436997649	-0.028192436997649	-0.028192436997649	-0.028192436997649
-0.0586684401866125	-0.0586684401866125	-0.0586684401866125	-0.0586684401866125	-0.0586684401866125	-0.0586684401866125
-0.097312801682664	-0.097312801682664	-0.097312801682664	-0.097312801682664	-0.097312801682664	-0.097312801682664
-0.138787802073444	-0.138787802073444	-0.138787802073444	-0.138787802073444	-0.138787802073444	-0.138787802073444
-0.17257035982876	-0.17257035982876	-0.17257035982876	-0.17257035982876	-0.17257035982876	-0.17257035982876
-0.181968560618358	-0.181968560618358	-0.181968560618358	-0.181968560618358	-0.181968560618358	-0.181968560618358
-0.148402284814095	-0.148402284814095	-0.148402284814095	-0.148402284814095	-0.148402284814095	-0.148402284814095
-0.0574014474149013	-0.0574014474149013	-0.0574014474149013	-0.0574014474149013	-0.0574014474149013	-0.0574014474149013
0.101115869395391	0.101115869395391	0.101115869395391	0.101115869395391	0.101115869395391	0.101115869395391
0.325274299254153	0.325274299254153	0.325274299254153	0.325274299254153	0.325274299254153	0.325274299254153
0.588023710784618	0.588023710784618	0.588023710784618	0.588023710784618	0.588023710784618	0.588023710784618
0.842887090100618	0.842887090100618	0.842887090100618	0.842887090100618	0.842887090100618	0.842887090100618
1.02521678319517	1.02521678319517	1.02521678319517	1.02521678319517	1.02521678319517	1.02521678319517
1.07491571398106	1.07491571398106	1.07491571398106	1.07491571398106	1.07491571398106	1.07491571398106
0.978175301641652	0.978175301641652	0.978175301641652	0.978175301641652	0.978175301641652	0.978175301641652
0.758530057011526	0.758530057011526	0.758530057011526	0.758530057011526	0.758530057011526	0.758530057011526
0.474714852527773	0.474714852527773	0.474714852527773	0.474714852527773	0.474714852527773	0.474714852527773
0.194647159772062	0.194647159772062	0.194647159772062	0.194647159772062	0.194647159772062	0.194647159772062
-0.0374795376020708	-0.0374795376020708	-0.0374795376020708	-0.0374795376020708	-0.0374795376020708	-0.0374795376020708
-0.197394076678278	-0.197394076678278	-0.197394076678278	-0.197394076678278	-0.197394076678278	-0.197394076678278
-0.281004237686587	-0.281004237686587	-0.281004237686587	-0.281004237686587	-0.281004237686587	-0.281004237686587
-0.297867955048503	-0.297867955048503	-0.297867955048503	-0.297867955048503	-0.297867955048503	-0.297867955048503
-0.26836107224907	-0.26836107224907	-0.26836107224907	-0.26836107224907	-0.26836107224907	-0.26836107224907
-0.213197447274177	-0.213197447274177	-0.213197447274177	-0.213197447274177	-0.213197447274177	-0.213197447274177
-0.151832205216985	-0.151832205216985	-0.151832205216985	-0.151832205216985	-0.151832205216985	-0.151832205216985
-0.100684532920428	-0.100684532920428	-0.100684532920428	-0.100684532920428	-0.100684532920428	-0.100684532920428
-0.063825770792832	-0.063825770792832	-0.063825770792832	-0.063825770792832	-0.063825770792832	-0.063825770792832
-0.0396661520114953	-0.0396661520114953	-0.0396661520114953	-0.0396661520114953	-0.0396661520114953	-0.0396661520114953
-0.0247452730725276	-0.0247452730725276	-0.0247452730725276	-0.0247452730725276	-0.0247452730725276	-0.0247452730725276
-0.0141571910316446	-0.0141571910316446	-0.0141571910316446	-0.0141571910316446	-0.0141571910316446	-0.0141571910316446
-0.00497304944631499	-0.00497304944631499	-0.00497304944631499	-0.00497304944631499	-0.00497304944631499	-0.00497304944631499
0.00433246998326697	0.00433246998326697	0.00433246998326697	0.00433246998326697	0.00433246998326697	0.00433246998326697
0.0146857712446079	0.0146857712446079	0.0146857712446079	0.0146857712446079	0.0146857712446079	0.0146857712446079
0.0263947111322761	0.0263947111322761	0.0263947111322761	0.0263947111322761	0.0263947111322761	0.0263947111322761
0.039541855100738	0.039541855100738	0.039541855100738	0.039541855100738	0.039541855100738	0.039541855100738
0.05420822457616	0.05420822457616	0.05420822457616	0.05420822457616	0.05420822457616	0.05420822457616
0.0704006500291371	0.0704006500291371	0.0704006500291371	0.0704006500291371	0.0704006500291371	0.0704006500291371
0.0880802619456315	0.0880802619456315	0.0880802619456315	0.0880802619456315	0.0880802619456315	0.0880802619456315
0.107162490826972	0.107162490826972	0.107162490826972	0.107162490826972	0.107162490826972	0.107162490826972
0.127534680152325	0.127534680152325	0.127534680152325	0.127534680152325	0.127534680152325	0.127534680152325
0.149007806148669	0.149007806148669	0.149007806148669	0.149007806148669	0.149007806148669	0.149007806148669
0.171318834175184	0.171318834175184	0.171318834175184	0.171318834175184	0.171318834175184	0.171318834175184
0.194175580587942	0.194175580587942	0.194175580587942	0.194175580587942	0.194175580587942	0.194175580587942
0.217256774129993	0.217256774129993	0.217256774129993	0.217256774129993	0.217256774129993	0.217256774129993
0.240212055931359	0.240212055931359	0.240212055931359	0.240212055931359	0.240212055931359	0.240212055931359
0.262661979509041	0.262661979509041	0.262661979509041	0.262661979509041	0.262661979509041	0.262661979509041
0.284198010767013	0.284198010767013	0.284198010767013	0.284198010767013	0.284198010767013	0.284198010767013
0.304382527996227	0.304382527996227	0.304382527996227	0.304382527996227	0.304382527996227	0.304382527996227
0.322750283743971	0.322750283743971	0.322750283743971	0.322750283743971	0.322750283743971	0.322750283743971
0.338935960174012	0.338935960174012	0.338935960174012	0.338935960174012	0.338935960174012	0.338935960174012
0.352564050160134	0.352564050160134	0.352564050160134	0.352564050160134	0.352564050160134	0.352564050160134
0.36326110609663	0.36326110609663	0.36326110609663	0.36326110609663	0.36326110609663	0.36326110609663
0.370738377255451	0.370738377255451	0.370738377255451	0.370738377255451	0.370738377255451	0.370738377255451
0.374791809786212	0.374791809786212	0.374791809786212	0.374791809786212	0.374791809786212	0.374791809786212
0.375302046716185	0.375302046716185	0.375302046716185	0.375302046716185	0.375302046716185	0.375302046716185
0.372234427950301	0.372234427950301	0.372234427950301	0.372234427950301	0.372234427950301	0.372234427950301
0.365638990271152	0.365638990271152	0.365638990271152	0.365638990271152	0.365638990271152	0.365638990271152
0.355650467338991	0.355650467338991	0.355650467338991	0.355650467338991	0.355650467338991	0.355650467338991
0.342488289691728	0.342488289691728	0.342488289691728	0.342488289691728	0.342488289691728	0.342488289691728
0.326449289748065	0.326449289748065	0.326449289748065	0.326449289748065	0.326449289748065	0.326449289748065
0.307789025656342	0.307789025656342	0.307789025656342	0.307789025656342	0.307789025656342	0.307789025656342
0.286921021112909	0.286921021112909	0.286921021112909	0.286921021112909	0.286921021112909	0.286921021112909
0.264305522560323	0.264305522560323	0.264305522560323	0.264305522560323	0.264305522560323	0.264305522560323
0.240384187101326	0.240384187101326	0.240384187101326	0.240384187101326	0.240384187101326	0.240384187101326
0.215580082498841	0.215580082498841	0.215580082498841	0.215580082498841	0.215580082498841	0.215580082498841
0.190297687175976	0.190297687175976	0.190297687175976	0.190297687175976	0.190297687175976	0.190297687175976
0.164922890216019	0.164922890216019	0.164922890216019	0.164922890216019	0.164922890216019	0.164922890216019
0.139822991362442	0.139822991362442	0.139822991362442	0.139822991362442	0.139822991362442	0.139822991362442
0.1153467010189	0.1153467010189	0.1153467010189	0.1153467010189	0.1153467010189	0.1153467010189
0.0918241402492287	0.0918241402492287	0.0918241402492287	0.0918241402492287	0.0918241402492287	0.0918241402492287
0.0695160694362414	0.0695160694362414	0.0695160694362414	0.0695160694362414	0.0695160694362414	0.0695160694362414
0.0485870377859377	0.0485870377859377	0.0485870377859377	0.0485870377859377	0.0485870377859377	0.0485870377859377
0.0291745282291626	0.0291745282291626	0.0291745282291626	0.0291745282291626	0.0291745282291626	0.0291745282291626
0.0113700335391642	0.0113700335391642	0.0113700335391642	0.0113700335391642	0.0113700335391642	0.0113700335391642
-0.00478094367898663	-0.00478094367898663	-0.00478094367898663	-0.00478094367898663	-0.00478094367898663	-0.00478094367898663
-0.0192788909883961	-0.0192788909883961	-0.0192788909883961	-0.0192788909883961	-0.0192788909883961	-0.0192788909883961
-0.0267585115683479	-0.0267585115683479	-0.0267585115683479	-0.0267585115683479	-0.0267585115683479	-0.0267585115683479
-0.0260382850634868	-0.0260382850634868	-0.0260382850634868	-0.0260382850634868	-0.0260382850634868	-0.0260382850634868
-0.0264768740310825	-0.0264768740310825	-0.0264768740310825	-0.0264768740310825	-0.0264768740310825	-0.0264768740310825
-0.0266963094578416	-0.0266963094578416	-0.0266963094578416	-0.0266963094578416	-0.0266963094578416	-0.0266963094578416
-0.0269010452317306	-0.0269010452317306	-0.0269010452317306	-0.0269010452317306	-0.0269010452317306	-0.0269010452317306
-0.0270528780222883	-0.0270528780222883	-0.0270528780222883	-0.0270528780222883	-0.0270528780222883	-0.0270528780222883
-0.0271600687785172	-0.0271600687785172	-0.0271600687785172	-0.0271600687785172	-0.0271600687785172	-0.0271600687785172
-0.0272327595487116	-0.0272327595487116	-0.0272327595487116	-0.0272327595487116	-0.0272327595487116	-0.0272327595487116
-0.0272537482615917	-0.0272537482615917	-0.0272537482615917	-0.0272537482615917	-0.0272537482615917	-0.0272537482615917
-0.0271784887263032	-0.0271784887263032	-0.0271784887263032	-0.0271784887263032	-0.0271784887263032	-0.0271784887263032
-0.0269350906324183	-0.0269350906324183	-0.0269350906324183	-0.0269350906324183	-0.0269350906324183	-0.0269350906324183
-0.0264243195499345	-0.0264243195499345	-0.0264243195499345	-0.0264243195499345	-0.0264243195499345	-0.0264243195499345
-0.0255195969292754	-0.0255195969292754	-0.0255195969292754	-0.0255195969292754	-0.0255195969292754	-0.0255195969292754
-0.0240670001012903	-0.0240670001012903	-0.0240670001012903	-0.0240670001012903	-0.0240670001012903	-0.0240670001012903
-0.0218852622772545	-0.0218852622772545	-0.0218852622772545	-0.0218852622772545	-0.0218852622772545	-0.0218852622772545
-0.0187657725488691	-0.0187657725488691	-0.0187657725488691	-0.0187657725488691	-0.0187657725488691	-0.0187657725488691
-0.0145406191507273	-0.0145406191507273	-0.0145406191507273	-0.0145406191507273	-0.0145406191507273	-0.0145406191507273
-0.00889532861321035	-0.00889532861321035	-0.00889532861321035	-0.00889532861321035	-0.00889532861321035	-0.00889532861321035
-0.00139735521349998	-0.00139735521349998	-0.00139735521349998	-0.00139735521349998	-0.00139735521349998	-0.00139735521349998
0.00826922572059274	0.00826922572059274	0.00826922572059274	0.00826922572059274	0.00826922572059274	0.00826922572059274
0.0203025045972629	0.0203025045972629	0.0203025045972629	0.0203025045972629	0.0203025045972629	0.0203025045972629
0.0347827375607177	0.0347827375607177	0.0347827375607177	0.0347827375607177	0.0347827375607177	0.0347827375607177
0.0516723464911681	0.0516723464911681	0.0516723464911681	0.0516723464911681	0.0516723464911681	0.0516723464911681
0.0708159190048341	0.0708159190048341	0.0708159190048341	0.0708159190048341	0.0708159190048341	0.0708159190048341
0.0919402084539436	0.0919402084539436	0.0919402084539436	0.0919402084539436	0.0919402084539436	0.0919402084539436
0.114671207459845	0.114671207459845	0.114671207459845	0.114671207459845	0.114671207459845	0.114671207459845
0.138223416377783	0.138223416377783	0.138223416377783	0.138223416377783	0.138223416377783	0.138223416377783
0.161494558541872	0.161494558541872	0.161494558541872	0.161494558541872	0.161494558541872	0.161494558541872
0.183428930815972	0.183428930815972	0.183428930815972	0.183428930815972	0.183428930815972	0.183428930815972
0.203023990667414	0.203023990667414	0.203023990667414	0.203023990667414	0.203023990667414	0.203023990667414
0.219330356166995	0.219330356166995	0.219330356166995	0.219330356166995	0.219330356166995	0.219330356166995
0.231451805988983	0.231451805988983	0.231451805988983	0.231451805988983	0.231451805988983	0.231451805988983
0.238545279411114	0.238545279411114	0.238545279411114	0.238545279411114	0.238545279411114	0.238545279411114
0.239899101589353	0.239899101589353	0.239899101589353	0.239899101589353	0.239899101589353	0.239899101589353
0.235522629939903	0.235522629939903	0.235522629939903	0.235522629939903	0.235522629939903	0.235522629939903
0.22582831623629	0.22582831623629	0.22582831623629	0.22582831623629	0.22582831623629	0.22582831623629
0.211369447289293	0.211369447289293	0.211369447289293	0.211369447289293	0.211369447289293	0.211369447289293
0.192839849463537	0.192839849463537	0.192839849463537	0.192839849463537	0.192839849463537	0.192839849463537
0.171073888677489	0.171073888677489	0.171073888677489	0.171073888677489	0.171073888677489	0.171073888677489
0.14704647040346	0.14704647040346	0.14704647040346	0.14704647040346	0.14704647040346	0.14704647040346
0.121873039667605	0.121873039667605	0.121873039667605	0.121873039667605	0.121873039667605	0.121873039667605
0.0968085467729245	0.0968085467729245	0.0968085467729245	0.0968085467729245	0.0968085467729245	0.0968085467729245
0.0727891497055225	0.0727891497055225	0.0727891497055225	0.0727891497055225	0.0727891497055225	0.0727891497055225
0.0504877752355012	0.0504877752355012	0.0504877752355012	0.0504877752355012	0.0504877752355012	0.0504877752355012
0.0303811242165049	0.0303811242165049	0.0303811242165049	0.0303811242165049	0.0303811242165049	0.0303811242165049
0.012440188870115	0.012440188870115	0.012440188870115	0.012440188870115	0.012440188870115	0.012440188870115
-0.00386974721414912	-0.00386974721414912	-0.00386974721414912	-0.00386974721414912	-0.00386974721414912	-0.00386974721414912
-0.0192914717122252	-0.0192914717122252	-0.0192914717122252	-0.0192914717122252	-0.0192914717122252	-0.0192914717122252
-0.0361764939367706	-0.0361764939367706	-0.0361764939367706	-0.0361764939367706	-0.0361764939367706	-0.0361764939367706
-0.0592726905018093	-0.0592726905018093	-0.0592726905018093	-0.0592726905018093	-0.0592726905018093	-0.0592726905018093
-0.0905281835080413	-0.0905281835080413	-0.0905281835080413	-0.0905281835080413	-0.0905281835080413	-0.0905281835080413
-0.128742904475064	-0.128742904475064	-0.128742904475064	-0.128742904475064	-0.128742904475064	-0.128742904475064
-0.169580371171387	-0.169580371171387	-0.169580371171387	-0.169580371171387	-0.169580371171387	-0.169580371171387
-0.203831149158975	-0.203831149158975	-0.203831149158975	-0.203831149158975	-0.203831149158975	-0.203831149158975
-0.212515270822163	-0.212515270822163	-0.212515270822163	-0.212515270822163	-0.212515270822163	-0.212515270822163
-0.177837263522856	-0.177837263522856	-0.177837263522856	-0.177837263522856	-0.177837263522856	-0.177837263522856
-0.0861403286206204	-0.0861403286206204	-0.0861403286206204	-0.0861403286206204	-0.0861403286206204	-0.0861403286206204
0.0720963218358601	0.0720963218358601	0.0720963218358601	0.0720963218358601	0.0720963218358601	0.0720963218358601
0.300896571952629	0.300896571952629	0.300896571952629	0.300896571952629	0.300896571952629	0.300896571952629
0.565006688779282	0.565006688779282	0.565006688779282	0.565006688779282	0.565006688779282	0.565006688779282
0.812396563311884	0.812396563311884	0.812396563311884	0.812396563311884	0.812396563311884	0.812396563311884
0.990551900050947	0.990551900050947	0.990551900050947	0.990551900050947	0.990551900050947	0.990551900050947
1.04647421700143	1.04647421700143	1.04647421700143	1.04647421700143	1.04647421700143	1.04647421700143
0.94518976667647	0.94518976667647	0.94518976667647	0.94518976667647	0.94518976667647	0.94518976667647
0.726126613041005	0.726126613041005	0.726126613041005	0.726126613041005	0.726126613041005	0.726126613041005
0.446882932413906	0.446882932413906	0.446882932413906	0.446882932413906	0.446882932413906	0.446882932413906
0.165610356411521	0.165610356411521	0.165610356411521	0.165610356411521	0.165610356411521	0.165610356411521
-0.0653077008826363	-0.0653077008826363	-0.0653077008826363	-0.0653077008826363	-0.0653077008826363	-0.0653077008826363
-0.224879976507282	-0.224879976507282	-0.224879976507282	-0.224879976507282	-0.224879976507282	-0.224879976507282
-0.309094387929726	-0.309094387929726	-0.309094387929726	-0.309094387929726	-0.309094387929726	-0.309094387929726
-0.326085998478093	-0.326085998478093	-0.326085998478093	-0.326085998478093	-0.326085998478093	-0.326085998478093
-0.294744784741227	-0.294744784741227	-0.294744784741227	-0.294744784741227	-0.294744784741227	-0.294744784741227
-0.238201401871358	-0.238201401871358	-0.238201401871358	-0.238201401871358	-0.238201401871358	-0.238201401871358
-0.177534057105115	-0.177534057105115	-0.177534057105115	-0.177534057105115	-0.177534057105115	-0.177534057105115
-0.126031273922292	-0.126031273922292	-0.126031273922292	-0.126031273922292	-0.126031273922292	-0.126031273922292
-0.089116261041525	-0.089116261041525	-0.089116261041525	-0.089116261041525	-0.089116261041525	-0.089116261041525
-0.0653667268569663	-0.0653667268569663	-0.0653667268569663	-0.0653667268569663	-0.0653667268569663	-0.0653667268569663
-0.0501610408464932	-0.0501610408464932	-0.0501610408464932	-0.0501610408464932	-0.0501610408464932	-0.0501610408464932
-0.0395679669786843	-0.0395679669786843	-0.0395679669786843	-0.0395679669786843	-0.0395679669786843	-0.0395679669786843
-0.0306114657702952	-0.0306114657702952	-0.0306114657702952	-0.0306114657702952	-0.0306114657702952	-0.0306114657702952
-0.0212706942862601	-0.0212706942862601	-0.0212706942862601	-0.0212706942862601	-0.0212706942862601	-0.0212706942862601
-0.0104800061396894	-0.0104800061396894	-0.0104800061396894	-0.0104800061396894	-0.0104800061396894	-0.0104800061396894
0.00187104850812814	0.00187104850812814	0.00187104850812814	0.00187104850812814	0.00187104850812814	0.00187104850812814
0.0153402484247162	0.0153402484247162	0.0153402484247162	0.0153402484247162	0.0153402484247162	0.0153402484247162
0.0302922160759201	0.0302922160759201	0.0302922160759201	0.0302922160759201	0.0302922160759201	0.0302922160759201
0.0467736324267513	0.0467736324267513	0.0467736324267513	0.0467736324267513	0.0467736324267513	0.0467736324267513
0.0647470786369866	0.0647470786369866	0.0647470786369866	0.0647470786369866	0.0647470786369866	0.0647470786369866
0.0841262533545306	0.0841262533545306	0.0841262533545306	0.0841262533545306	0.0841262533545306	0.0841262533545306
0.104775972715416	0.104775972715416	0.104775972715416	0.104775972715416	0.104775972715416	0.104775972715416
0.126512170343803	0.126512170343803	0.126512170343803	0.126512170343803	0.126512170343803	0.126512170343803
0.1491255069342	0.1491255069342	0.1491255069342	0.1491255069342	0.1491255069342	0.1491255069342
0.172328618431722	0.172328618431722	0.172328618431722	0.172328618431722	0.172328618431722	0.172328618431722
0.195749908039624	0.195749908039624	0.195749908039624	0.195749908039624	0.195749908039624	0.195749908039624
0.219008543883477	0.219008543883477	0.219008543883477	0.219008543883477	0.219008543883477	0.219008543883477
0.241715007251038	0.241715007251038	0.241715007251038	0.241715007251038	0.241715007251038	0.241715007251038
0.263471092592247	0.263471092592247	0.263471092592247	0.263471092592247	0.263471092592247	0.263471092592247
0.283869907519232	0.283869907519232	0.283869907519232	0.283869907519232	0.283869907519232	0.283869907519232
0.302495872806306	0.302495872806306	0.302495872806306	0.302495872806306	0.302495872806306	0.302495872806306
0.318924722389969	0.318924722389969	0.318924722389969	0.318924722389969	0.318924722389969	0.318924722389969
0.332747059474931	0.332747059474931	0.332747059474931	0.332747059474931	0.332747059474931	0.332747059474931
0.34367714932792	0.34367714932792	0.34367714932792	0.34367714932792	0.34367714932792	0.34367714932792
0.351430222255273	0.351430222255273	0.351430222255273	0.351430222255273	0.351430222255273	0.351430222255273
0.355791286525479	0.355791286525479	0.355791286525479	0.355791286525479	0.355791286525479	0.355791286525479
0.356628262567286	0.356628262567286	0.356628262567286	0.356628262567286	0.356628262567286	0.356628262567286
0.353891982969701	0.353891982969701	0.353891982969701	0.353891982969701	0.353891982969701	0.353891982969701
0.347616192481992	0.347616192481992	0.347616192481992	0.347616192481992	0.347616192481992	0.347616192481992
0.337917548013686	0.337917548013686	0.337917548013686	0.337917548013686	0.337917548013686	0.337917548013686
0.324995618634572	0.324995618634572	0.324995618634572	0.324995618634572	0.324995618634572	0.324995618634572
0.309132885574695	0.309132885574695	0.309132885574695	0.309132885574695	0.309132885574695	0.309132885574695
0.290694742224364	0.290694742224364	0.290694742224364	0.290694742224364	0.290694742224364	0.290694742224364
0.270122614293729	0.270122614293729	0.270122614293729	0.270122614293729	0.270122614293729	0.270122614293729
0.24776106107579	0.24776106107579	0.24776106107579	0.24776106107579	0.24776106107579	0.24776106107579
0.224047487567449	0.224047487567449	0.224047487567449	0.224047487567449	0.224047487567449	0.224047487567449
0.199456488617752	0.199456488617752	0.199456488617752	0.199456488617752	0.199456488617752	0.199456488617752
0.174425049127219	0.174425049127219	0.174425049127219	0.174425049127219	0.174425049127219	0.174425049127219
0.149352544047844	0.149352544047844	0.149352544047844	0.149352544047844	0.149352544047844	0.149352544047844
0.124600738383095	0.124600738383095	0.124600738383095	0.124600738383095	0.124600738383095	0.124600738383095
0.100493787187915	0.100493787187915	0.100493787187915	0.100493787187915	0.100493787187915	0.100493787187915
0.0773182355687213	0.0773182355687213	0.0773182355687213	0.0773182355687213	0.0773182355687213	0.0773182355687213
0.0553230186834056	0.0553230186834056	0.0553230186834056	0.0553230186834056	0.0553230186834056	0.0553230186834056
0.0347177808800196	0.0347177808800196	0.0347177808800196	0.0347177808800196	0.0347177808800196	0.0347177808800196
0.0156393001007445	0.0156393001007445	0.0156393001007445	0.0156393001007445	0.0156393001007445	0.0156393001007445
-0.00183022421693607	-0.00183022421693607	-0.00183022421693607	-0.00183022421693607	-0.00183022421693607	-0.00183022421693607
-0.0176483517100191	-0.0176483517100191	-0.0176483517100191	-0.0176483517100191	-0.0176483517100191	-0.0176483517100191
-0.0323948868724632	-0.0323948868724632	-0.0323948868724632	-0.0323948868724632	-0.0323948868724632	-0.0323948868724632
-0.035444902140597	-0.035444902140597	-0.035444902140597	-0.035444902140597	-0.035444902140597	-0.035444902140597
-0.0353838576382423	-0.0353838576382423	-0.0353838576382423	-0.0353838576382423	-0.0353838576382423	-0.0353838576382423
-0.0353154179042711	-0.0353154179042711	-0.0353154179042711	-0.0353154179042711	-0.0353154179042711	-0.0353154179042711
-0.0352356482504102	-0.0352356482504102	-0.0352356482504102	-0.0352356482504102	-0.0352356482504102	-0.0352356482504102
-0.0351446474642548	-0.0351446474642548	-0.0351446474642548	-0.0351446474642548	-0.0351446474642548	-0.0351446474642548
-0.0350355243040384	-0.0350355243040384	-0.0350355243040384	-0.0350355243040384	-0.0350355243040384	-0.0350355243040384
-0.0348935113313369	-0.0348935113313369	-0.0348935113313369	-0.0348935113313369	-0.0348935113313369	-0.0348935113313369
-0.0346959649110686	-0.0346959649110686	-0.0346959649110686	-0.0346959649110686	-0.0346959649110686	-0.0346959649110686
-0.0344123652114942	-0.0344123652114942	-0.0344123652114942	-0.0344123652114942	-0.0344123652114942	-0.0344123652114942
-0.0340109188796701	-0.0340109188796701	-0.0340109188796701	-0.0340109188796701	-0.0340109188796701	-0.0340109188796701
-0.0335308131274538	-0.0335308131274538	-0.0335308131274538	-0.0335308131274538	-0.0335308131274538	-0.0335308131274538
-0.0328342688430891	-0.0328342688430891	-0.0328342688430891	-0.0328342688430891	-0.0328342688430891	-0.0328342688430891
-0.0317193837805455	-0.0317193837805455	-0.0317193837805455	-0.0317193837805455	-0.0317193837805455	-0.0317193837805455
-0.0299805770855255	-0.0299805770855255	-0.0299805770855255	-0.0299805770855255	-0.0299805770855255	-0.0299805770855255
-0.0274085892954656	-0.0274085892954656	-0.0274085892954656	-0.0274085892954656	-0.0274085892954656	-0.0274085892954656
-0.0237904823395356	-0.0237904823395356	-0.0237904823395356	-0.0237904823395356	-0.0237904823395356	-0.0237904823395356
-0.0189096395386388	-0.0189096395386388	-0.0189096395386388	-0.0189096395386388	-0.0189096395386388	-0.0189096395386388
-0.0125457656054121	-0.0125457656054121	-0.0125457656054121	-0.0125457656054121	-0.0125457656054121	-0.0125457656054121
-0.0044748866442258	-0.0044748866442258	-0.0044748866442258	-0.0044748866442258	-0.0044748866442258	-0.0044748866442258
0.00553064984881613	0.00553064984881613	0.00553064984881613	0.00553064984881613	0.00553064984881613	0.00553064984881613
0.0177021749858763	0.0177021749858763	0.0177021749858763	0.0177021749858763	0.0177021749858763	0.0177021749858763
0.032274698487384	0.032274698487384	0.032274698487384	0.032274698487384	0.032274698487384	0.032274698487384
0.049563942704265	0.049563942704265	0.049563942704265	0.049563942704265	0.049563942704265	0.049563942704265
0.0696799980635239	0.0696799980635239	0.0696799980635239	0.0696799980635239	0.0696799980635239	0.0696799980635239
0.091809009271212	0.091809009271212	0.091809009271212	0.091809009271212	0.091809009271212	0.091809009271212
0.115073253120604	0.115073253120604	0.115073253120604	0.115073253120604	0.115073253120604	0.115073253120604
0.138605180682742	0.138605180682742	0.138605180682742	0.138605180682742	0.138605180682742	0.138605180682742
0.161547417306437	0.161547417306437	0.161547417306437	0.161547417306437	0.161547417306437	0.161547417306437
0.183052762618266	0.183052762618266	0.183052762618266	0.183052762618266	0.183052762618266	0.183052762618266
0.202284190522574	0.202284190522574	0.202284190522574	0.202284190522574	0.202284190522574	0.202284190522574
0.218414849201473	0.218414849201473	0.218414849201473	0.218414849201473	0.218414849201473	0.218414849201473
0.230628061114843	0.230628061114843	0.230628061114843	0.230628061114843	0.230628061114843	0.230628061114843
0.238117323000333	0.238117323000333	0.238117323000333	0.238117323000333	0.238117323000333	0.238117323000333
0.240086305873356	0.240086305873356	0.240086305873356	0.240086305873356	0.240086305873356	0.240086305873356
0.235771179668325	0.235771179668325	0.235771179668325	0.235771179668325	0.235771179668325	0.235771179668325
0.225483435846136	0.225483435846136	0.225483435846136	0.225483435846136	0.225483435846136	0.225483435846136
0.21039565738909	0.21039565738909	0.21039565738909	0.21039565738909	0.21039565738909	0.21039565738909
0.191619133368987	0.191619133368987	0.191619133368987	0.191619133368987	0.191619133368987	0.191619133368987
0.170185706785832	0.170185706785832	0.170185706785832	0.170185706785832	0.170185706785832	0.170185706785832
0.147047774567834	0.147047774567834	0.147047774567834	0.147047774567834	0.147047774567834	0.147047774567834
0.123078287571407	0.123078287571407	0.123078287571407	0.123078287571407	0.123078287571407	0.123078287571407
0.0990707505811684	0.0990707505811684	0.0990707505811684	0.0990707505811684	0.0990707505811684	0.0990707505811684
0.0757392223099431	0.0757392223099431	0.0757392223099431	0.0757392223099431	0.0757392223099431	0.0757392223099431
0.0537183153987587	0.0537183153987587	0.0537183153987587	0.0537183153987587	0.0537183153987587	0.0537183153987587
0.033563196416848	0.033563196416848	0.033563196416848	0.033563196416848	0.033563196416848	0.033563196416848
0.0157454957832664	0.0157454957832664	0.0157454957832664	0.0157454957832664	0.0157454957832664	0.0157454957832664
-3.84992295416331e-05	-3.84992295416331e-05	-3.84992295416331e-05	-3.84992295416331e-05	-3.84992295416331e-05	-3.84992295416331e-05
-0.0156281598432662	-0.0156281598432662	-0.0156281598432662	-0.0156281598432662	-0.0156281598432662	-0.0156281598432662
-0.033311212665992	-0.033311212665992	-0.033311212665992	-0.033311212665992	-0.033311212665992	-0.033311212665992
-0.055691656823568	-0.055691656823568	-0.055691656823568	-0.055691656823568	-0.055691656823568	-0.055691656823568
-0.085689068711881	-0.085689068711881	-0.085689068711881	-0.085689068711881	-0.085689068711881	-0.085689068711881
-0.124241369402909	-0.124241369402909	-0.124241369402909	-0.124241369402909	-0.124241369402909	-0.124241369402909
-0.16479300931189	-0.16479300931189	-0.16479300931189	-0.16479300931189	-0.16479300931189	-0.16479300931189
-0.196252025060773	-0.196252025060773	-0.196252025060773	-0.196252025060773	-0.196252025060773	-0.196252025060773
-0.203766630995939	-0.203766630995939	-0.203766630995939	-0.203766630995939	-0.203766630995939	-0.203766630995939
-0.168967524354748	-0.168967524354748	-0.168967524354748	-0.168967524354748	-0.168967524354748	-0.168967524354748
-0.0757816515201155	-0.0757816515201155	-0.0757816515201155	-0.0757816515201155	-0.0757816515201155	-0.0757816515201155
0.0870104659841594	0.0870104659841594	0.0870104659841594	0.0870104659841594	0.0870104659841594	0.0870104659841594
0.313849957430978	0.313849957430978	0.313849957430978	0.313849957430978	0.313849957430978	0.313849957430978
0.579433468953228	0.579433468953228	0.579433468953228	0.579433468953228	0.579433468953228	0.579433468953228
0.835655297183785	0.835655297183785	0.835655297183785	0.835655297183785	0.835655297183785	0.835655297183785
1.01091034444403	1.01091034444403	1.01091034444403	1.01091034444403	1.01091034444403	1.01091034444403
1.05584358674493	1.05584358674493	1.05584358674493	1.05584358674493	1.05584358674493	1.05584358674493
0.951995478259619	0.951995478259619	0.951995478259619	0.951995478259619	0.951995478259619	0.951995478259619
0.727525852010887	0.727525852010887	0.727525852010887	0.727525852010887	0.727525852010887	0.727525852010887
0.446689560241471	0.446689560241471	0.446689560241471	0.446689560241471	0.446689560241471	0.446689560241471
0.167996790546064	0.167996790546064	0.167996790546064	0.167996790546064	0.167996790546064	0.167996790546064
-0.0605433115090755	-0.0605433115090755	-0.0605433115090755	-0.0605433115090755	-0.0605433115090755	-0.0605433115090755
-0.216805525076476	-0.216805525076476	-0.216805525076476	-0.216805525076476	-0.216805525076476	-0.216805525076476
-0.298256833365259	-0.298256833365259	-0.298256833365259	-0.298256833365259	-0.298256833365259	-0.298256833365259
-0.31316030559619	-0.31316030559619	-0.31316030559619	-0.31316030559619	-0.31316030559619	-0.31316030559619
-0.280279948673993	-0.280279948673993	-0.280279948673993	-0.280279948673993	-0.280279948673993	-0.280279948673993
-0.222856191014259	-0.222856191014259	-0.222856191014259	-0.222856191014259	-0.222856191014259	-0.222856191014259
-0.161781662570746	-0.161781662570746	-0.161781662570746	-0.161781662570746	-0.161781662570746	-0.161781662570746
-0.110439438923751	-0.110439438923751	-0.110439438923751	-0.110439438923751	-0.110439438923751	-0.110439438923751
-0.0737420432444766	-0.0737420432444766	-0.0737420432444766	-0.0737420432444766	-0.0737420432444766	-0.0737420432444766
-0.0500354257950306	-0.0500354257950306	-0.0500354257950306	-0.0500354257950306	-0.0500354257950306	-0.0500354257950306
-0.0347385544427107	-0.0347385544427107	-0.0347385544427107	-0.0347385544427107	-0.0347385544427107	-0.0347385544427107
-0.0237332285997131	-0.0237332285997131	-0.0237332285997131	-0.0237332285997131	-0.0237332285997131	-0.0237332285997131
-0.0140850452391077	-0.0140850452391077	-0.0140850452391077	-0.0140850452391077	-0.0140850452391077	-0.0140850452391077
-0.00404339889486038	-0.00404339889486038	-0.00404339889486038	-0.00404339889486038	-0.00404339889486038	-0.00404339889486038
0.00699235805728754	0.00699235805728754	0.00699235805728754	0.00699235805728754	0.00699235805728754	0.00699235805728754
0.0192962535037673	0.0192962535037673	0.0192962535037673	0.0192962535037673	0.0192962535037673	0.0192962535037673
0.0330598711485338	0.0330598711485338	0.0330598711485338	0.0330598711485338	0.0330598711485338	0.0330598711485338
0.0483416805343715	0.0483416805343715	0.0483416805343715	0.0483416805343715	0.0483416805343715	0.0483416805343715
0.0651511901772452	0.0651511901772452	0.0651511901772452	0.0651511901772452	0.0651511901772452	0.0651511901772452
0.0834489475662738	0.0834489475662738	0.0834489475662738	0.0834489475662738	0.0834489475662738	0.0834489475662738
0.103146539163755	0.103146539163755	0.103146539163755	0.103146539163755	0.103146539163755	0.103146539163755
0.124113357177909	0.124113357177909	0.124113357177909	0.124113357177909	0.124113357177909	0.124113357177909
0.146184628836922	0.146184628836922	0.146184628836922	0.146184628836922	0.146184628836922	0.146184628836922
0.169093677390896	0.169093677390896	0.169093677390896	0.169093677390896	0.169093677390896	0.169093677390896
0.192538191852657	0.192538191852657	0.192538191852657	0.192538191852657	0.192538191852657	0.192538191852657
0.216189881938587	0.216189881938587	0.216189881938587	0.216189881938587	0.216189881938587	0.216189881938587
0.239694478068579	0.239694478068579	0.239694478068579	0.239694478068579	0.239694478068579	0.239694478068579
0.262671731366085	0.262671731366085	0.262671731366085	0.262671731366085	0.262671731366085	0.262671731366085
0.284715413658066	0.284715413658066	0.284715413658066	0.284715413658066	0.284715413658066	0.284715413658066
0.305393317475042	0.305393317475042	0.305393317475042	0.305393317475042	0.305393317475042	0.305393317475042
0.324247256051044	0.324247256051044	0.324247256051044	0.324247256051044	0.324247256051044	0.324247256051044
0.340891202142111	0.340891202142111	0.340891202142111	0.340891202142111	0.340891202142111	0.340891202142111
0.354971347224386	0.354971347224386	0.354971347224386	0.354971347224386	0.354971347224386	0.354971347224386
0.366114500447599	0.366114500447599	0.366114500447599	0.366114500447599	0.366114500447599	0.366114500447599
0.374032448559354	0.374032448559354	0.374032448559354	0.374032448559354	0.374032448559354	0.374032448559354
0.3785219728892	0.3785219728892	0.3785219728892	0.3785219728892	0.3785219728892	0.3785219728892
0.379464849348618	0.379464849348618	0.379464849348618	0.379464849348618	0.379464849348618	0.379464849348618
0.37682784843103	0.37682784843103	0.37682784843103	0.37682784843103	0.37682784843103	0.37682784843103
0.370662735211793	0.370662735211793	0.370662735211793	0.370662735211793	0.370662735211793	0.370662735211793
0.3611062693482	0.3611062693482	0.3611062693482	0.3611062693482	0.3611062693482	0.3611062693482
0.348380205079488	0.348380205079488	0.348380205079488	0.348380205079488	0.348380205079488	0.348380205079488
0.332790056138768	0.332790056138768	0.332790056138768	0.332790056138768	0.332790056138768	0.332790056138768
0.314607050157063	0.314607050157063	0.314607050157063	0.314607050157063	0.314607050157063	0.314607050157063
0.294219987111021	0.294219987111021	0.294219987111021	0.294219987111021	0.294219987111021	0.294219987111021
0.272096570782615	0.272096570782615	0.272096570782615	0.272096570782615	0.272096570782615	0.272096570782615
0.248683744160373	0.248683744160373	0.248683744160373	0.248683744160373	0.248683744160373	0.248683744160373
0.224407689439424	0.224407689439424	0.224407689439424	0.224407689439424	0.224407689439424	0.224407689439424
0.199673828021454	0.199673828021454	0.199673828021454	0.199673828021454	0.199673828021454	0.199673828021454
0.17486682051475	0.17486682051475	0.17486682051475	0.17486682051475	0.17486682051475	0.17486682051475
0.150350566734153	0.150350566734153	0.150350566734153	0.150350566734153	0.150350566734153	0.150350566734153
0.126468205701106	0.126468205701106	0.126468205701106	0.126468205701106	0.126468205701106	0.126468205701106
0.103542115643609	0.103542115643609	0.103542115643609	0.103542115643609	0.103542115643609	0.103542115643609
0.081839186930468	0.081839186930468	0.081839186930468	0.081839186930468	0.081839186930468	0.081839186930468
0.0615231816580517	0.0615231816580517	0.0615231816580517	0.0615231816580517	0.0615231816580517	0.0615231816580517
0.0427303121699118	0.0427303121699118	0.0427303121699118	0.0427303121699118	0.0427303121699118	0.0427303121699118
0.0255468941752858	0.0255468941752858	0.0255468941752858	0.0255468941752858	0.0255468941752858	0.0255468941752858
0.0100131595332891	0.0100131595332891	0.0100131595332891	0.0100131595332891	0.0100131595332891	0.0100131595332891
-0.00387173388503181	-0.00387173388503181	-0.00387173388503181	-0.00387173388503181	-0.00387173388503181	-0.00387173388503181
-0.00772788711260419	-0.00772788711260419	-0.00772788711260419	-0.00772788711260419	-0.00772788711260419	-0.00772788711260419
-0.00750883088076387	-0.00750883088076387	-0.00750883088076387	-0.00750883088076387	-0.00750883088076387	-0.00750883088076387
-0.00719084952955901	-0.00719084952955901	-0.00719084952955901	-0.00719084952955901	-0.00719084952955901	-0.00719084952955901
-0.00686421683699734	-0.00686421683699734	-0.00686421683699734	-0.00686421683699734	-0.00686421683699734	-0.00686421683699734
-0.00652577356224004	-0.00652577356224004	-0.00652577356224004	-0.00652577356224004	-0.00652577356224004	-0.00652577356224004
-0.00616719429781987	-0.00616719429781987	-0.00616719429781987	-0.00616719429781987	-0.00616719429781987	-0.00616719429781987
-0.00577450190718953	-0.00577450190718953	-0.00577450190718953	-0.00577450190718953	-0.00577450190718953	-0.00577450190718953
-0.00532806752472154	-0.00532806752472154	-0.00532806752472154	-0.00532806752472154	-0.00532806752472154	-0.00532806752472154
-0.00479237668204785	-0.00479237668204785	-0.00479237668204785	-0.00479237668204785	-0.00479237668204785	-0.00479237668204785
-0.00412495393537926	-0.00412495393537926	-0.00412495393537926	-0.00412495393537926	-0.00412495393537926	-0.00412495393537926
-0.00327877751956474	-0.00327877751956474	-0.00327877751956474	-0.00327877751956474	-0.00327877751956474	-0.00327877751956474
-0.00217175736158781	-0.00217175736158781	-0.00217175736158781	-0.00217175736158781	-0.00217175736158781	-0.00217175736158781
-0.000686362855649214	-0.000686362855649214	-0.000686362855649214	-0.000686362855649214	-0.000686362855649214	-0.000686362855649214
0.00133037713683531	0.00133037713683531	0.00133037713683531	0.00133037713683531	0.00133037713683531	0.00133037713683531
0.00406687428723163	0.00406687428723163	0.00406687428723163	0.00406687428723163	0.00406687428723163	0.00406687428723163
