0.990493890384103	0.990493890384103	0.990493890384103	0.990493890384103	0.990493890384103	0.990493890384103
0.90779172145959	0.90779172145959	0.90779172145959	0.90779172145959	0.90779172145959	0.90779172145959
0.696822927541881	0.696822927541881	0.696822927541881	0.696822927541881	0.696822927541881	0.696822927541881
0.415229940128046	0.415229940128046	0.415229940128046	0.415229940128046	0.415229940128046	0.415229940128046
0.129088634615119	0.129088634615119	0.129088634615119	0.129088634615119	0.129088634615119	0.129088634615119
-0.112645927746932	-0.112645927746932	-0.112645927746932	-0.112645927746932	-0.112645927746932	-0.112645927746932
-0.283365389681404	-0.283365389681404	-0.283365389681404	-0.283365389681404	-0.283365389681404	-0.283365389681404
-0.376414598642928	-0.376414598642928	-0.376414598642928	-0.376414598642928	-0.376414598642928	-0.376414598642928
-0.4	-0.4	-0.4	-0.4	-0.4	-0.4
-0.37354644400905	-0.37354644400905	-0.37354644400905	-0.37354644400905	-0.37354644400905	-0.37354644400905
-0.318495910452391	-0.318495910452391	-0.318495910452391	-0.318495910452391	-0.318495910452391	-0.318495910452391
-0.255135007694432	-0.255135007694432	-0.255135007694432	-0.255135007694432	-0.255135007694432	-0.255135007694432
-0.200835424076819	-0.200835424076819	-0.200835424076819	-0.200835424076819	-0.200835424076819	-0.200835424076819
-0.160677159406514	-0.160677159406514	-0.160677159406514	-0.160677159406514	-0.160677159406514	-0.160677159406514
-0.133663133155983	-0.133663133155983	-0.133663133155983	-0.133663133155983	-0.133663133155983	-0.133663133155983
-0.116689046936088	-0.116689046936088	-0.116689046936088	-0.116689046936088	-0.116689046936088	-0.116689046936088
-0.10475597273105	-0.10475597273105	-0.10475597273105	-0.10475597273105	-0.10475597273105	-0.10475597273105
-0.0944128587652701	-0.0944128587652701	-0.0944128587652701	-0.0944128587652701	-0.0944128587652701	-0.0944128587652701
-0.0841576109706587	-0.0841576109706587	-0.0841576109706587	-0.0841576109706587	-0.0841576109706587	-0.0841576109706587
-0.0729737271705186	-0.0729737271705186	-0.0729737271705186	-0.0729737271705186	-0.0729737271705186	-0.0729737271705186
-0.0603755564690217	-0.0603755564690217	-0.0603755564690217	-0.0603755564690217	-0.0603755564690217	-0.0603755564690217
-0.0463342583395045	-0.0463342583395045	-0.0463342583395045	-0.0463342583395045	-0.0463342583395045	-0.0463342583395045
-0.0307748301064862	-0.0307748301064862	-0.0307748301064862	-0.0307748301064862	-0.0307748301064862	-0.0307748301064862
-0.0136670862468681	-0.0136670862468681	-0.0136670862468681	-0.0136670862468681	-0.0136670862468681	-0.0136670862468681
0.00495826959726714	0.00495826959726714	0.00495826959726714	0.00495826959726714	0.00495826959726714	0.00495826959726714
0.0250210909148582	0.0250210909148582	0.0250210909148582	0.0250210909148582	0.0250210909148582	0.0250210909148582
0.0463917883258644	0.0463917883258644	0.0463917883258644	0.0463917883258644	0.0463917883258644	0.0463917883258644
0.0688913295812654	0.0688913295812654	0.0688913295812654	0.0688913295812654	0.0688913295812654	0.0688913295812654
0.0923038927992089	0.0923038927992089	0.0923038927992089	0.0923038927992089	0.0923038927992089	0.0923038927992089
0.116361067252683	0.116361067252683	0.116361067252683	0.116361067252683	0.116361067252683	0.116361067252683
0.140697625324436	0.140697625324436	0.140697625324436	0.140697625324436	0.140697625324436	0.140697625324436
0.164932896351077	0.164932896351077	0.164932896351077	0.164932896351077	0.164932896351077	0.164932896351077
0.188675149948426	0.188675149948426	0.188675149948426	0.188675149948426	0.188675149948426	0.188675149948426
0.211521596011519	0.211521596011519	0.211521596011519	0.211521596011519	0.211521596011519	0.211521596011519
0.233058384714606	0.233058384714606	0.233058384714606	0.233058384714606	0.233058384714606	0.233058384714606
0.252860606511151	0.252860606511151	0.252860606511151	0.252860606511151	0.252860606511151	0.252860606511151
0.270492292133832	0.270492292133832	0.270492292133832	0.270492292133832	0.270492292133832	0.270492292133832
0.285550944072379	0.285550944072379	0.285550944072379	0.285550944072379	0.285550944072379	0.285550944072379
0.29773268077339	0.29773268077339	0.29773268077339	0.29773268077339	0.29773268077339	0.29773268077339
0.306725369988406	0.306725369988406	0.306725369988406	0.306725369988406	0.306725369988406	0.306725369988406
0.312298384624723	0.312298384624723	0.312298384624723	0.312298384624723	0.312298384624723	0.312298384624723
0.314306848034703	0.314306848034703	0.314306848034703	0.314306848034703	0.314306848034703	0.314306848034703
0.312691634015772	0.312691634015772	0.312691634015772	0.312691634015772	0.312691634015772	0.312691634015772
0.307479366810426	0.307479366810426	0.307479366810426	0.307479366810426	0.307479366810426	0.307479366810426
0.298782421106224	0.298782421106224	0.298782421106224	0.298782421106224	0.298782421106224	0.298782421106224
0.286798922035791	0.286798922035791	0.286798922035791	0.286798922035791	0.286798922035791	0.286798922035791
0.271812745176821	0.271812745176821	0.271812745176821	0.271812745176821	0.271812745176821	0.271812745176821
0.254191730366931	0.254191730366931	0.254191730366931	0.254191730366931	0.254191730366931	0.254191730366931
0.23426281645021	0.23426281645021	0.23426281645021	0.23426281645021	0.23426281645021	0.23426281645021
0.212443501383135	0.212443501383135	0.212443501383135	0.212443501383135	0.212443501383135	0.212443501383135
0.189210408442881	0.189210408442881	0.189210408442881	0.189210408442881	0.189210408442881	0.189210408442881
0.165014033237394	0.165014033237394	0.165014033237394	0.165014033237394	0.165014033237394	0.165014033237394
0.140278743705397	0.140278743705397	0.140278743705397	0.140278743705397	0.140278743705397	0.140278743705397
0.115402780116388	0.115402780116388	0.115402780116388	0.115402780116388	0.115402780116388	0.115402780116388
0.0907582550706389	0.0907582550706389	0.0907582550706389	0.0907582550706389	0.0907582550706389	0.0907582550706389
0.0666911534991982	0.0666911534991982	0.0666911534991982	0.0666911534991982	0.0666911534991982	0.0666911534991982
0.0435213326638877	0.0435213326638877	0.0435213326638877	0.0435213326638877	0.0435213326638877	0.0435213326638877
0.0215338503698687	0.0215338503698687	0.0215338503698687	0.0215338503698687	0.0215338503698687	0.0215338503698687
0.000918448836557506	0.000918448836557506	0.000918448836557506	0.000918448836557506	0.000918448836557506	0.000918448836557506
-0.0181802935536107	-0.0181802935536107	-0.0181802935536107	-0.0181802935536107	-0.0181802935536107	-0.0181802935536107
-0.0356642609815041	-0.0356642609815041	-0.0356642609815041	-0.0356642609815041	-0.0356642609815041	-0.0356642609815041
-0.0514834720689717	-0.0514834720689717	-0.0514834720689717	-0.0514834720689717	-0.0514834720689717	-0.0514834720689717
-0.0660955296892528	-0.0660955296892528	-0.0660955296892528	-0.0660955296892528	-0.0660955296892528	-0.0660955296892528
-0.0678940500182187	-0.0678940500182187	-0.0678940500182187	-0.0678940500182187	-0.0678940500182187	-0.0678940500182187
-0.0673107105022528	-0.0673107105022528	-0.0673107105022528	-0.0673107105022528	-0.0673107105022528	-0.0673107105022528
-0.0667225217906033	-0.0667225217906033	-0.0667225217906033	-0.0667225217906033	-0.0667225217906033	-0.0667225217906033
-0.0661268680079393	-0.0661268680079393	-0.0661268680079393	-0.0661268680079393	-0.0661268680079393	-0.0661268680079393
-0.0655226765582688	-0.0655226765582688	-0.0655226765582688	-0.0655226765582688	-0.0655226765582688	-0.0655226765582688
-0.0649027504568271	-0.0649027504568271	-0.0649027504568271	-0.0649027504568271	-0.0649027504568271	-0.0649027504568271
-0.0642534254853656	-0.0642534254853656	-0.0642534254853656	-0.0642534254853656	-0.0642534254853656	-0.0642534254853656
-0.0635545701921524	-0.0635545701921524	-0.0635545701921524	-0.0635545701921524	-0.0635545701921524	-0.0635545701921524
-0.0627795858919718	-0.0627795858919718	-0.0627795858919718	-0.0627795858919718	-0.0627795858919718	-0.0627795858919718
-0.0618919825555058	-0.0618919825555058	-0.0618919825555058	-0.0618919825555058	-0.0618919825555058	-0.0618919825555058
-0.0608350632683876	-0.0608350632683876	-0.0608350632683876	-0.0608350632683876	-0.0608350632683876	-0.0608350632683876
-0.0595270498278117	-0.0595270498278117	-0.0595270498278117	-0.0595270498278117	-0.0595270498278117	-0.0595270498278117
-0.0578542663596388	-0.0578542663596388	-0.0578542663596388	-0.0578542663596388	-0.0578542663596388	-0.0578542663596388
-0.0556709832975024	-0.0556709832975024	-0.0556709832975024	-0.0556709832975024	-0.0556709832975024	-0.0556709832975024
-0.0527994173828088	-0.0527994173828088	-0.0527994173828088	-0.0527994173828088	-0.0527994173828088	-0.0527994173828088
-0.0490297316647371	-0.0490297316647371	-0.0490297316647371	-0.0490297316647371	-0.0490297316647371	-0.0490297316647371
-0.044120035500239	-0.044120035500239	-0.044120035500239	-0.044120035500239	-0.044120035500239	-0.044120035500239
-0.0377963845540389	-0.0377963845540389	-0.0377963845540389	-0.0377963845540389	-0.0377963845540389	-0.0377963845540389
-0.0297527807986341	-0.0297527807986341	-0.0297527807986341	-0.0297527807986341	-0.0297527807986341	-0.0297527807986341
-0.019670856902567	-0.019670856902567	-0.019670856902567	-0.019670856902567	-0.019670856902567	-0.019670856902567
-0.00734700582224451	-0.00734700582224451	-0.00734700582224451	-0.00734700582224451	-0.00734700582224451	-0.00734700582224451
0.00745002415047796	0.00745002415047796	0.00745002415047796	0.00745002415047796	0.00745002415047796	0.00745002415047796
0.0247964634384631	0.0247964634384631	0.0247964634384631	0.0247964634384631	0.0247964634384631	0.0247964634384631
0.0445748777267813	0.0445748777267813	0.0445748777267813	0.0445748777267813	0.0445748777267813	0.0445748777267813
0.0664741679627109	0.0664741679627109	0.0664741679627109	0.0664741679627109	0.0664741679627109	0.0664741679627109
0.0899895703557386	0.0899895703557386	0.0899895703557386	0.0899895703557386	0.0899895703557386	0.0899895703557386
0.114422656377559	0.114422656377559	0.114422656377559	0.114422656377559	0.114422656377559	0.114422656377559
0.138972056853471	0.138972056853471	0.138972056853471	0.138972056853471	0.138972056853471	0.138972056853471
0.162578959629096	0.162578959629096	0.162578959629096	0.162578959629096	0.162578959629096	0.162578959629096
0.183962891846673	0.183962891846673	0.183962891846673	0.183962891846673	0.183962891846673	0.183962891846673
0.202030362917942	0.202030362917942	0.202030362917942	0.202030362917942	0.202030362917942	0.202030362917942
0.215881458672614	0.215881458672614	0.215881458672614	0.215881458672614	0.215881458672614	0.215881458672614
0.224809841358368	0.224809841358368	0.224809841358368	0.224809841358368	0.224809841358368	0.224809841358368
0.22830274964085	0.22830274964085	0.22830274964085	0.22830274964085	0.22830274964085	0.22830274964085
0.226031014640604	0.226031014640604	0.226031014640604	0.226031014640604	0.226031014640604	0.226031014640604
0.217829105904329	0.217829105904329	0.217829105904329	0.217829105904329	0.217829105904329	0.217829105904329
0.204464074791971	0.204464074791971	0.204464074791971	0.204464074791971	0.204464074791971	0.204464074791971
0.186936827622824	0.186936827622824	0.186936827622824	0.186936827622824	0.186936827622824	0.186936827622824
0.16623048555258	0.16623048555258	0.16623048555258	0.16623048555258	0.16623048555258	0.16623048555258
0.143310384573331	0.143310384573331	0.143310384573331	0.143310384573331	0.143310384573331	0.143310384573331
0.119124075513566	0.119124075513566	0.119124075513566	0.119124075513566	0.119124075513566	0.119124075513566
0.0946013240381711	0.0946013240381711	0.0946013240381711	0.0946013240381711	0.0946013240381711	0.0946013240381711
0.0706541106484335	0.0706541106484335	0.0706541106484335	0.0706541106484335	0.0706541106484335	0.0706541106484335
0.0481766306820358	0.0481766306820358	0.0481766306820358	0.0481766306820358	0.0481766306820358	0.0481766306820358
0.0278997340414348	0.0278997340414348	0.0278997340414348	0.0278997340414348	0.0278997340414348	0.0278997340414348
0.00985903145999151	0.00985903145999151	0.00985903145999151	0.00985903145999151	0.00985903145999151	0.00985903145999151
-0.00628127522657806	-0.00628127522657806	-0.00628127522657806	-0.00628127522657806	-0.00628127522657806	-0.00628127522657806
-0.0216381364131866	-0.0216381364131866	-0.0216381364131866	-0.0216381364131866	-0.0216381364131866	-0.0216381364131866
-0.0381496463214385	-0.0381496463214385	-0.0381496463214385	-0.0381496463214385	-0.0381496463214385	-0.0381496463214385
-0.0585750429996291	-0.0585750429996291	-0.0585750429996291	-0.0585750429996291	-0.0585750429996291	-0.0585750429996291
-0.0863620407549372	-0.0863620407549372	-0.0863620407549372	-0.0863620407549372	-0.0863620407549372	-0.0863620407549372
-0.122677049844868	-0.122677049844868	-0.122677049844868	-0.122677049844868	-0.122677049844868	-0.122677049844868
-0.163728474692234	-0.163728474692234	-0.163728474692234	-0.163728474692234	-0.163728474692234	-0.163728474692234
-0.1998853637795	-0.1998853637795	-0.1998853637795	-0.1998853637795	-0.1998853637795	-0.1998853637795
-0.215766413447844	-0.215766413447844	-0.215766413447844	-0.215766413447844	-0.215766413447844	-0.215766413447844
-0.193040006350747	-0.193040006350747	-0.193040006350747	-0.193040006350747	-0.193040006350747	-0.193040006350747
-0.114000076733852	-0.114000076733852	-0.114000076733852	-0.114000076733852	-0.114000076733852	-0.114000076733852
0.0315795521731086	0.0315795521731086	0.0315795521731086	0.0315795521731086	0.0315795521731086	0.0315795521731086
0.246001440430787	0.246001440430787	0.246001440430787	0.246001440430787	0.246001440430787	0.246001440430787
0.510182341103178	0.510182341103178	0.510182341103178	0.510182341103178	0.510182341103178	0.510182341103178
0.774104698470362	0.774104698470362	0.774104698470362	0.774104698470362	0.774104698470362	0.774104698470362
0.981217061941014	0.981217061941014	0.981217061941014	0.981217061941014	0.981217061941014	0.981217061941014
1.07063933773106	1.07063933773106	1.07063933773106	1.07063933773106	1.07063933773106	1.07063933773106
1.00541388794175	1.00541388794175	1.00541388794175	1.00541388794175	1.00541388794175	1.00541388794175
0.811627789527346	0.811627789527346	0.811627789527346	0.811627789527346	0.811627789527346	0.811627789527346
0.537393470915804	0.537393470915804	0.537393470915804	0.537393470915804	0.537393470915804	0.537393470915804
0.246313796165771	0.246313796165771	0.246313796165771	0.246313796165771	0.246313796165771	0.246313796165771
-0.00496257467545991	-0.00496257467545991	-0.00496257467545991	-0.00496257467545991	-0.00496257467545991	-0.00496257467545991
-0.190100993065164	-0.190100993065164	-0.190100993065164	-0.190100993065164	-0.190100993065164	-0.190100993065164
-0.298705625590904	-0.298705625590904	-0.298705625590904	-0.298705625590904	-0.298705625590904	-0.298705625590904
-0.335838754996271	-0.335838754996271	-0.335838754996271	-0.335838754996271	-0.335838754996271	-0.335838754996271
-0.317558381843661	-0.317558381843661	-0.317558381843661	-0.317558381843661	-0.317558381843661	-0.317558381843661
-0.266618692668104	-0.266618692668104	-0.266618692668104	-0.266618692668104	-0.266618692668104	-0.266618692668104
-0.204086028280009	-0.204086028280009	-0.204086028280009	-0.204086028280009	-0.204086028280009	-0.204086028280009
-0.146080472463864	-0.146080472463864	-0.146080472463864	-0.146080472463864	-0.146080472463864	-0.146080472463864
-0.10237341087655	-0.10237341087655	-0.10237341087655	-0.10237341087655	-0.10237341087655	-0.10237341087655
-0.0723197309570367	-0.0723197309570367	-0.0723197309570367	-0.0723197309570367	-0.0723197309570367	-0.0723197309570367
-0.0525303530329029	-0.0525303530329029	-0.0525303530329029	-0.0525303530329029	-0.0525303530329029	-0.0525303530329029
-0.0393348471118199	-0.0393348471118199	-0.0393348471118199	-0.0393348471118199	-0.0393348471118199	-0.0393348471118199
-0.0288329662091869	-0.0288329662091869	-0.0288329662091869	-0.0288329662091869	-0.0288329662091869	-0.0288329662091869
-0.0185484960454667	-0.0185484960454667	-0.0185484960454667	-0.0185484960454667	-0.0185484960454667	-0.0185484960454667
-0.00765257060685942	-0.00765257060685942	-0.00765257060685942	-0.00765257060685942	-0.00765257060685942	-0.00765257060685942
0.00441882399418481	0.00441882399418481	0.00441882399418481	0.00441882399418481	0.00441882399418481	0.00441882399418481
0.0179612691568718	0.0179612691568718	0.0179612691568718	0.0179612691568718	0.0179612691568718	0.0179612691568718
0.0330110826002853	0.0330110826002853	0.0330110826002853	0.0330110826002853	0.0330110826002853	0.0330110826002853
0.0495668095106682	0.0495668095106682	0.0495668095106682	0.0495668095106682	0.0495668095106682	0.0495668095106682
0.0676351445882152	0.0676351445882152	0.0676351445882152	0.0676351445882152	0.0676351445882152	0.0676351445882152
0.0871598877894511	0.0871598877894511	0.0871598877894511	0.0871598877894511	0.0871598877894511	0.0871598877894511
0.10803564479622	0.10803564479622	0.10803564479622	0.10803564479622	0.10803564479622	0.10803564479622
0.130107827015686	0.130107827015686	0.130107827015686	0.130107827015686	0.130107827015686	0.130107827015686
0.153172651580332	0.153172651580332	0.153172651580332	0.153172651580332	0.153172651580332	0.153172651580332
0.176993235487554	0.176993235487554	0.176993235487554	0.176993235487554	0.176993235487554	0.176993235487554
0.201294157206422	0.201294157206422	0.201294157206422	0.201294157206422	0.201294157206422	0.201294157206422
0.225680840454271	0.225680840454271	0.225680840454271	0.225680840454271	0.225680840454271	0.225680840454271
0.249751389039275	0.249751389039275	0.249751389039275	0.249751389039275	0.249751389039275	0.249751389039275
0.273105215061897	0.273105215061897	0.273105215061897	0.273105215061897	0.273105215061897	0.273105215061897
0.29534303891489	0.29534303891489	0.29534303891489	0.29534303891489	0.29534303891489	0.29534303891489
0.316066889283296	0.316066889283296	0.316066889283296	0.316066889283296	0.316066889283296	0.316066889283296
0.334880103144446	0.334880103144446	0.334880103144446	0.334880103144446	0.334880103144446	0.334880103144446
0.351387325767962	0.351387325767962	0.351387325767962	0.351387325767962	0.351387325767962	0.351387325767962
0.365194521456403	0.365194521456403	0.365194521456403	0.365194521456403	0.365194521456403	0.365194521456403
0.375978766358845	0.375978766358845	0.375978766358845	0.375978766358845	0.375978766358845	0.375978766358845
0.383520727106621	0.383520727106621	0.383520727106621	0.383520727106621	0.383520727106621	0.383520727106621
0.387642804066945	0.387642804066945	0.387642804066945	0.387642804066945	0.387642804066945	0.387642804066945
0.388241826930493	0.388241826930493	0.388241826930493	0.388241826930493	0.388241826930493	0.388241826930493
0.385289054711399	0.385289054711399	0.385289054711399	0.385289054711399	0.385289054711399	0.385289054711399
0.37883017574726	0.37883017574726	0.37883017574726	0.37883017574726	0.37883017574726	0.37883017574726
0.368985307699132	0.368985307699132	0.368985307699132	0.368985307699132	0.368985307699132	0.368985307699132
0.355948997551531	0.355948997551531	0.355948997551531	0.355948997551531	0.355948997551531	0.355948997551531
0.339990221612435	0.339990221612435	0.339990221612435	0.339990221612435	0.339990221612435	0.339990221612435
0.321452385513282	0.321452385513282	0.321452385513282	0.321452385513282	0.321452385513282	0.321452385513282
0.30075332420897	0.30075332420897	0.30075332420897	0.30075332420897	0.30075332420897	0.30075332420897
0.278385301977857	0.278385301977857	0.278385301977857	0.278385301977857	0.278385301977857	0.278385301977857
0.25478973078981	0.25478973078981	0.25478973078981	0.25478973078981	0.25478973078981	0.25478973078981
0.23031256115323	0.23031256115323	0.23031256115323	0.23031256115323	0.23031256115323	0.23031256115323
0.205414125539249	0.205414125539249	0.205414125539249	0.205414125539249	0.205414125539249	0.205414125539249
0.180510337924735	0.180510337924735	0.180510337924735	0.180510337924735	0.180510337924735	0.180510337924735
0.155970677582845	0.155970677582845	0.155970677582845	0.155970677582845	0.155970677582845	0.155970677582845
0.132118189083022	0.132118189083022	0.132118189083022	0.132118189083022	0.132118189083022	0.132118189083022
0.109229482291004	0.109229482291004	0.109229482291004	0.109229482291004	0.109229482291004	0.109229482291004
0.0875347323688125	0.0875347323688125	0.0875347323688125	0.0875347323688125	0.0875347323688125	0.0875347323688125
0.0672176797747629	0.0672176797747629	0.0672176797747629	0.0672176797747629	0.0672176797747629	0.0672176797747629
0.0484156302634573	0.0484156302634573	0.0484156302634573	0.0484156302634573	0.0484156302634573	0.0484156302634573
0.0312194723781097	0.0312194723781097	0.0312194723781097	0.0312194723781097	0.0312194723781097	0.0312194723781097
0.0156725845970406	0.0156725845970406	0.0156725845970406	0.0156725845970406	0.0156725845970406	0.0156725845970406
0.00177564672466196	0.00177564672466196	0.00177564672466196	0.00177564672466196	0.00177564672466196	0.00177564672466196
-0.0041172488060785	-0.0041172488060785	-0.0041172488060785	-0.0041172488060785	-0.0041172488060785	-0.0041172488060785
-0.00341281704178564	-0.00341281704178564	-0.00341281704178564	-0.00341281704178564	-0.00341281704178564	-0.00341281704178564
-0.00282298064032355	-0.00282298064032355	-0.00282298064032355	-0.00282298064032355	-0.00282298064032355	-0.00282298064032355
-0.00222738533654754	-0.00222738533654754	-0.00222738533654754	-0.00222738533654754	-0.00222738533654754	-0.00222738533654754
-0.00162307837635872	-0.00162307837635872	-0.00162307837635872	-0.00162307837635872	-0.00162307837635872	-0.00162307837635872
-0.00100263487841512	-0.00100263487841512	-0.00100263487841512	-0.00100263487841512	-0.00100263487841512	-0.00100263487841512
-0.000353072471269922	-0.000353072471269922	-0.000353072471269922	-0.000353072471269922	-0.000353072471269922	-0.000353072471269922
0.000344148706629244	0.000344148706629244	0.000344148706629244	0.000344148706629244	0.000344148706629244	0.000344148706629244
0.00111565444912437	0.00111565444912437	0.00111565444912437	0.00111565444912437	0.00111565444912437	0.00111565444912437
0.0020003608238659	0.0020003608238659	0.0020003608238659	0.0020003608238659	0.0020003608238659	0.0020003608238659
0.00305327210174228	0.00305327210174228	0.00305327210174228	0.00305327210174228	0.00305327210174228	0.00305327210174228
0.00435567056267067	0.00435567056267067	0.00435567056267067	0.00435567056267067	0.00435567056267067	0.00435567056267067
0.00601541809141504	0.00601541809141504	0.00601541809141504	0.00601541809141504	0.00601541809141504	0.00601541809141504
0.00816792227191515	0.00816792227191515	0.00816792227191515	0.00816792227191515	0.00816792227191515	0.00816792227191515
0.0109900462762492	0.0109900462762492	0.0109900462762492	0.0109900462762492	0.0109900462762492	0.0109900462762492
0.0146973847016926	0.0146973847016926	0.0146973847016926	0.0146973847016926	0.0146973847016926	0.0146973847016926
0.0195346209058431	0.0195346209058431	0.0195346209058431	0.0195346209058431	0.0195346209058431	0.0195346209058431
0.0257753440952753	0.0257753440952753	0.0257753440952753	0.0257753440952753	0.0257753440952753	0.0257753440952753
0.0336987206309431	0.0336987206309431	0.0336987206309431	0.0336987206309431	0.0336987206309431	0.0336987206309431
0.0435892190836563	0.0435892190836563	0.0435892190836563	0.0435892190836563	0.0435892190836563	0.0435892190836563
0.0557477067606916	0.0557477067606916	0.0557477067606916	0.0557477067606916	0.0557477067606916	0.0557477067606916
0.0703446672359203	0.0703446672359203	0.0703446672359203	0.0703446672359203	0.0703446672359203	0.0703446672359203
0.0874136557320039	0.0874136557320039	0.0874136557320039	0.0874136557320039	0.0874136557320039	0.0874136557320039
0.106851299120396	0.106851299120396	0.106851299120396	0.106851299120396	0.106851299120396	0.106851299120396
0.128417401336584	0.128417401336584	0.128417401336584	0.128417401336584	0.128417401336584	0.128417401336584
0.151838944787258	0.151838944787258	0.151838944787258	0.151838944787258	0.151838944787258	0.151838944787258
0.17633040068737	0.17633040068737	0.17633040068737	0.17633040068737	0.17633040068737	0.17633040068737
0.200837809610786	0.200837809610786	0.200837809610786	0.200837809610786	0.200837809610786	0.200837809610786
0.224348009809404	0.224348009809404	0.224348009809404	0.224348009809404	0.224348009809404	0.224348009809404
0.245888637213157	0.245888637213157	0.245888637213157	0.245888637213157	0.245888637213157	0.245888637213157
0.264528125430018	0.264528125430018	0.264528125430018	0.264528125430018	0.264528125430018	0.264528125430018
0.27937570574599	0.27937570574599	0.27937570574599	0.27937570574599	0.27937570574599	0.27937570574599
0.289581407125114	0.289581407125114	0.289581407125114	0.289581407125114	0.289581407125114	0.289581407125114
0.294332813055719	0.294332813055719	0.294332813055719	0.294332813055719	0.294332813055719	0.294332813055719
0.293113603290583	0.293113603290583	0.293113603290583	0.293113603290583	0.293113603290583	0.293113603290583
0.286286589102915	0.286286589102915	0.286286589102915	0.286286589102915	0.286286589102915	0.286286589102915
0.274440049399872	0.274440049399872	0.274440049399872	0.274440049399872	0.274440049399872	0.274440049399872
0.258253445660298	0.258253445660298	0.258253445660298	0.258253445660298	0.258253445660298	0.258253445660298
0.238497421934724	0.238497421934724	0.238497421934724	0.238497421934724	0.238497421934724	0.238497421934724
0.216033804845365	0.216033804845365	0.216033804845365	0.216033804845365	0.216033804845365	0.216033804845365
0.191815603586121	0.191815603586121	0.191815603586121	0.191815603586121	0.191815603586121	0.191815603586121
0.166887009922579	0.166887009922579	0.166887009922579	0.166887009922579	0.166887009922579	0.166887009922579
0.14238339819201	0.14238339819201	0.14238339819201	0.14238339819201	0.14238339819201	0.14238339819201
0.119337257853004	0.119337257853004	0.119337257853004	0.119337257853004	0.119337257853004	0.119337257853004
0.0981808813769461	0.0981808813769461	0.0981808813769461	0.0981808813769461	0.0981808813769461	0.0981808813769461
0.0793601019150061	0.0793601019150061	0.0793601019150061	0.0793601019150061	0.0793601019150061	0.0793601019150061
0.0626826310315185	0.0626826310315185	0.0626826310315185	0.0626826310315185	0.0626826310315185	0.0626826310315185
0.0472605505385936	0.0472605505385936	0.0472605505385936	0.0472605505385936	0.0472605505385936	0.0472605505385936
0.031510849835956	0.031510849835956	0.031510849835956	0.031510849835956	0.031510849835956	0.031510849835956
0.0137772067813193	0.0137772067813193	0.0137772067813193	0.0137772067813193	0.0137772067813193	0.0137772067813193
-0.010560472521964	-0.010560472521964	-0.010560472521964	-0.010560472521964	-0.010560472521964	-0.010560472521964
-0.0441514083798343	-0.0441514083798343	-0.0441514083798343	-0.0441514083798343	-0.0441514083798343	-0.0441514083798343
-0.0846737827579975	-0.0846737827579975	-0.0846737827579975	-0.0846737827579975	-0.0846737827579975	-0.0846737827579975
-0.124834739281917	-0.124834739281917	-0.124834739281917	-0.124834739281917	-0.124834739281917	-0.124834739281917
-0.152615732045857	-0.152615732045857	-0.152615732045857	-0.152615732045857	-0.152615732045857	-0.152615732045857
-0.151536285712744	-0.151536285712744	-0.151536285712744	-0.151536285712744	-0.151536285712744	-0.151536285712744
-0.101600335431622	-0.101600335431622	-0.101600335431622	-0.101600335431622	-0.101600335431622	-0.101600335431622
0.0102547035384828	0.0102547035384828	0.0102547035384828	0.0102547035384828	0.0102547035384828	0.0102547035384828
0.18884927666644	0.18884927666644	0.18884927666644	0.18884927666644	0.18884927666644	0.18884927666644
0.431465312498144	0.431465312498144	0.431465312498144	0.431465312498144	0.431465312498144	0.431465312498144
0.706253916253353	0.706253916253353	0.706253916253353	0.706253916253353	0.706253916253353	0.706253916253353
0.950045816831037	0.950045816831037	0.950045816831037	0.950045816831037	0.950045816831037	0.950045816831037
1.10787967479416	1.10787967479416	1.10787967479416	1.10787967479416	1.10787967479416	1.10787967479416
1.13523540169362	1.13523540169362	1.13523540169362	1.13523540169362	1.13523540169362	1.13523540169362
1.00913384490802	1.00913384490802	1.00913384490802	1.00913384490802	1.00913384490802	1.00913384490802
0.77327827887188	0.77327827887188	0.77327827887188	0.77327827887188	0.77327827887188	0.77327827887188
0.488012885747977	0.488012885747977	0.488012885747977	0.488012885747977	0.488012885747977	0.488012885747977
0.20773310291261	0.20773310291261	0.20773310291261	0.20773310291261	0.20773310291261	0.20773310291261
-0.0206677923936091	-0.0206677923936091	-0.0206677923936091	-0.0206677923936091	-0.0206677923936091	-0.0206677923936091
-0.176075396569915	-0.176075396569915	-0.176075396569915	-0.176075396569915	-0.176075396569915	-0.176075396569915
-0.257292635729296	-0.257292635729296	-0.257292635729296	-0.257292635729296	-0.257292635729296	-0.257292635729296
-0.272575009616192	-0.272575009616192	-0.272575009616192	-0.272575009616192	-0.272575009616192	-0.272575009616192
-0.239707102407696	-0.239707102407696	-0.239707102407696	-0.239707102407696	-0.239707102407696	-0.239707102407696
-0.181823325188256	-0.181823325188256	-0.181823325188256	-0.181823325188256	-0.181823325188256	-0.181823325188256
-0.119274678731633	-0.119274678731633	-0.119274678731633	-0.119274678731633	-0.119274678731633	-0.119274678731633
-0.0657808925920772	-0.0657808925920772	-0.0657808925920772	-0.0657808925920772	-0.0657808925920772	-0.0657808925920772
-0.026831996315158	-0.026831996315158	-0.026831996315158	-0.026831996315158	-0.026831996315158	-0.026831996315158
-0.00117232100716619	-0.00117232100716619	-0.00117232100716619	-0.00117232100716619	-0.00117232100716619	-0.00117232100716619
0.0155068298701688	0.0155068298701688	0.0155068298701688	0.0155068298701688	0.0155068298701688	0.0155068298701688
0.0274171668385017	0.0274171668385017	0.0274171668385017	0.0274171668385017	0.0274171668385017	0.0274171668385017
0.0375851537327292	0.0375851537327292	0.0375851537327292	0.0375851537327292	0.0375851537327292	0.0375851537327292
0.0478520077009907	0.0478520077009907	0.0478520077009907	0.0478520077009907	0.0478520077009907	0.0478520077009907
0.0589719246364484	0.0589719246364484	0.0589719246364484	0.0589719246364484	0.0589719246364484	0.0589719246364484
0.0713475641087459	0.0713475641087459	0.0713475641087459	0.0713475641087459	0.0713475641087459	0.0713475641087459
0.0851366928104446	0.0851366928104446	0.0851366928104446	0.0851366928104446	0.0851366928104446	0.0851366928104446
0.100417812509256	0.100417812509256	0.100417812509256	0.100417812509256	0.100417812509256	0.100417812509256
0.117218261501564	0.117218261501564	0.117218261501564	0.117218261501564	0.117218261501564	0.117218261501564
0.135514214612431	0.135514214612431	0.135514214612431	0.135514214612431	0.135514214612431	0.135514214612431
0.155230683195588	0.155230683195588	0.155230683195588	0.155230683195588	0.155230683195588	0.155230683195588
0.176261856902496	0.176261856902496	0.176261856902496	0.176261856902496	0.176261856902496	0.176261856902496
0.198457139068694	0.198457139068694	0.198457139068694	0.198457139068694	0.198457139068694	0.198457139068694
0.221569077689102	0.221569077689102	0.221569077689102	0.221569077689102	0.221569077689102	0.221569077689102
0.245321294195653	0.245321294195653	0.245321294195653	0.245321294195653	0.245321294195653	0.245321294195653
0.269410649982955	0.269410649982955	0.269410649982955	0.269410649982955	0.269410649982955	0.269410649982955
0.29350724640829	0.29350724640829	0.29350724640829	0.29350724640829	0.29350724640829	0.29350724640829
0.317254424791616	0.317254424791616	0.317254424791616	0.317254424791616	0.317254424791616	0.317254424791616
0.340268766415566	0.340268766415566	0.340268766415566	0.340268766415566	0.340268766415566	0.340268766415566
0.362140092525446	0.362140092525446	0.362140092525446	0.362140092525446	0.362140092525446	0.362140092525446
0.382431464329239	0.382431464329239	0.382431464329239	0.382431464329239	0.382431464329239	0.382431464329239
0.40069173450699	0.40069173450699	0.40069173450699	0.40069173450699	0.40069173450699	0.40069173450699
0.416604212339211	0.416604212339211	0.416604212339211	0.416604212339211	0.416604212339211	0.416604212339211
0.429801052347884	0.429801052347884	0.429801052347884	0.429801052347884	0.429801052347884	0.429801052347884
0.439949255425255	0.439949255425255	0.439949255425255	0.439949255425255	0.439949255425255	0.439949255425255
0.446797453737666	0.446797453737666	0.446797453737666	0.446797453737666	0.446797453737666	0.446797453737666
0.450175910725547	0.450175910725547	0.450175910725547	0.450175910725547	0.450175910725547	0.450175910725547
0.449996521103417	0.449996521103417	0.449996521103417	0.449996521103417	0.449996521103417	0.449996521103417
0.446252810859891	0.446252810859891	0.446252810859891	0.446252810859891	0.446252810859891	0.446252810859891
0.439019937257669	0.439019937257669	0.439019937257669	0.439019937257669	0.439019937257669	0.439019937257669
0.428454688833545	0.428454688833545	0.428454688833545	0.428454688833545	0.428454688833545	0.428454688833545
0.414795485398403	0.414795485398403	0.414795485398403	0.414795485398403	0.414795485398403	0.414795485398403
0.398362378037217	0.398362378037217	0.398362378037217	0.398362378037217	0.398362378037217	0.398362378037217
0.379485684863488	0.379485684863488	0.379485684863488	0.379485684863488	0.379485684863488	0.379485684863488
0.358478261052913	0.358478261052913	0.358478261052913	0.358478261052913	0.358478261052913	0.358478261052913
0.335812071937717	0.335812071937717	0.335812071937717	0.335812071937717	0.335812071937717	0.335812071937717
0.31193896307091	0.31193896307091	0.31193896307091	0.31193896307091	0.31193896307091	0.31193896307091
0.287284211039724	0.287284211039724	0.287284211039724	0.287284211039724	0.287284211039724	0.287284211039724
0.262246523465614	0.262246523465614	0.262246523465614	0.262246523465614	0.262246523465614	0.262246523465614
0.237198039004258	0.237198039004258	0.237198039004258	0.237198039004258	0.237198039004258	0.237198039004258
0.212484327345558	0.212484327345558	0.212484327345558	0.212484327345558	0.212484327345558	0.212484327345558
0.188424389213636	0.188424389213636	0.188424389213636	0.188424389213636	0.188424389213636	0.188424389213636
0.165310656366839	0.165310656366839	0.165310656366839	0.165310656366839	0.165310656366839	0.165310656366839
0.143407916959884	0.143407916959884	0.143407916959884	0.143407916959884	0.143407916959884	0.143407916959884
0.122899271553257	0.122899271553257	0.122899271553257	0.122899271553257	0.122899271553257	0.122899271553257
0.103903325977905	0.103903325977905	0.103903325977905	0.103903325977905	0.103903325977905	0.103903325977905
0.0865052048132307	0.0865052048132307	0.0865052048132307	0.0865052048132307	0.0865052048132307	0.0865052048132307
0.0707448156459348	0.0707448156459348	0.0707448156459348	0.0707448156459348	0.0707448156459348	0.0707448156459348
0.0566218960101028	0.0566218960101028	0.0566218960101028	0.0566218960101028	0.0566218960101028	0.0566218960101028
0.0508940951538582	0.0508940951538582	0.0508940951538582	0.0508940951538582	0.0508940951538582	0.0508940951538582
0.0512552434247125	0.0512552434247125	0.0512552434247125	0.0512552434247125	0.0512552434247125	0.0512552434247125
0.0516172797199945	0.0516172797199945	0.0516172797199945	0.0516172797199945	0.0516172797199945	0.0516172797199945
0.0519849010677835	0.0519849010677835	0.0519849010677835	0.0519849010677835	0.0519849010677835	0.0519849010677835
0.0523693301027405	0.0523693301027405	0.0523693301027405	0.0523693301027405	0.0523693301027405	0.0523693301027405
0.0527656524219585	0.0527656524219585	0.0527656524219585	0.0527656524219585	0.0527656524219585	0.0527656524219585
0.0531785498138257	0.0531785498138257	0.0531785498138257	0.0531785498138257	0.0531785498138257	0.0531785498138257
0.0536263879420125	0.0536263879420125	0.0536263879420125	0.0536263879420125	0.0536263879420125	0.0536263879420125
0.054141216345471	0.054141216345471	0.054141216345471	0.054141216345471	0.054141216345471	0.054141216345471
0.0547687684384357	0.0547687684384357	0.0547687684384357	0.0547687684384357	0.0547687684384357	0.0547687684384357
0.0555684615104228	0.0555684615104228	0.0555684615104228	0.0555684615104228	0.0555684615104228	0.0555684615104228
0.0566133967262304	0.0566133967262304	0.0566133967262304	0.0566133967262304	0.0566133967262304	0.0566133967262304
0.0579848079409898	0.0579848079409898	0.0579848079409898	0.0579848079409898	0.0579848079409898	0.0579848079409898
0.0598040951717561	0.0598040951717561	0.0598040951717561	0.0598040951717561	0.0598040951717561	0.0598040951717561
0.062283021606344	0.062283021606344	0.062283021606344	0.062283021606344	0.062283021606344	0.062283021606344
0.0656484125709695	0.0656484125709695	0.0656484125709695	0.0656484125709695	0.0656484125709695	0.0656484125709695
0.0701364770521012	0.0701364770521012	0.0701364770521012	0.0701364770521012	0.0701364770521012	0.0701364770521012
0.0759928076964604	0.0759928076964604	0.0759928076964604	0.0759928076964604	0.0759928076964604	0.0759928076964604
0.0834723808110212	0.0834723808110212	0.0834723808110212	0.0834723808110212	0.0834723808110212	0.0834723808110212
0.0928395563630101	0.0928395563630101	0.0928395563630101	0.0928395563630101	0.0928395563630101	0.0928395563630101
0.104368077979907	0.104368077979907	0.104368077979907	0.104368077979907	0.104368077979907	0.104368077979907
0.118309097110844	0.118309097110844	0.118309097110844	0.118309097110844	0.118309097110844	0.118309097110844
0.134726427346668	0.134726427346668	0.134726427346668	0.134726427346668	0.134726427346668	0.134726427346668
0.153527018406059	0.153527018406059	0.153527018406059	0.153527018406059	0.153527018406059	0.153527018406059
0.174458363054355	0.174458363054355	0.174458363054355	0.174458363054355	0.174458363054355	0.174458363054355
0.197106326735293	0.197106326735293	0.197106326735293	0.197106326735293	0.197106326735293	0.197106326735293
0.220895147571011	0.220895147571011	0.220895147571011	0.220895147571011	0.220895147571011	0.220895147571011
0.245087436362042	0.245087436362042	0.245087436362042	0.245087436362042	0.245087436362042	0.245087436362042
0.268784176587319	0.268784176587319	0.268784176587319	0.268784176587319	0.268784176587319	0.268784176587319
0.290924724404174	0.290924724404174	0.290924724404174	0.290924724404174	0.290924724404174	0.290924724404174
0.310289912660712	0.310289912660712	0.310289912660712	0.310289912660712	0.310289912660712	0.310289912660712
0.325866437047266	0.325866437047266	0.325866437047266	0.325866437047266	0.325866437047266	0.325866437047266
0.336853345496732	0.336853345496732	0.336853345496732	0.336853345496732	0.336853345496732	0.336853345496732
0.342600865440717	0.342600865440717	0.342600865440717	0.342600865440717	0.342600865440717	0.342600865440717
0.342761424238534	0.342761424238534	0.342761424238534	0.342761424238534	0.342761424238534	0.342761424238534
0.337289649177208	0.337289649177208	0.337289649177208	0.337289649177208	0.337289649177208	0.337289649177208
0.326442367471477	0.326442367471477	0.326442367471477	0.326442367471477	0.326442367471477	0.326442367471477
0.310778606263785	0.310778606263785	0.310778606263785	0.310778606263785	0.310778606263785	0.310778606263785
0.291159592624288	0.291159592624288	0.291159592624288	0.291159592624288	0.291159592624288	0.291159592624288
0.268664030044406	0.268664030044406	0.268664030044406	0.268664030044406	0.268664030044406	0.268664030044406
0.244226222002759	0.244226222002759	0.244226222002759	0.244226222002759	0.244226222002759	0.244226222002759
0.219106678586186	0.219106678586186	0.219106678586186	0.219106678586186	0.219106678586186	0.219106678586186
0.194378111565102	0.194378111565102	0.194378111565102	0.194378111565102	0.194378111565102	0.194378111565102
0.170844427573033	0.170844427573033	0.170844427573033	0.170844427573033	0.170844427573033	0.170844427573033
0.14904072810662	0.14904072810662	0.14904072810662	0.14904072810662	0.14904072810662	0.14904072810662
0.12923330952562	0.12923330952562	0.12923330952562	0.12923330952562	0.12923330952562	0.12923330952562
0.111419663052901	0.111419663052901	0.111419663052901	0.111419663052901	0.111419663052901	0.111419663052901
0.0953190047262059	0.0953190047262059	0.0953190047262059	0.0953190047262059	0.0953190047262059	0.0953190047262059
0.0797096538177379	0.0797096538177379	0.0797096538177379	0.0797096538177379	0.0797096538177379	0.0797096538177379
0.0620568392413047	0.0620568392413047	0.0620568392413047	0.0620568392413047	0.0620568392413047	0.0620568392413047
0.0395835570146146	0.0395835570146146	0.0395835570146146	0.0395835570146146	0.0395835570146146	0.0395835570146146
0.0094969771714421	0.0094969771714421	0.0094969771714421	0.0094969771714421	0.0094969771714421	0.0094969771714421
-0.0286098927484041	-0.0286098927484041	-0.0286098927484041	-0.0286098927484041	-0.0286098927484041	-0.0286098927484041
-0.0700562356056971	-0.0700562356056971	-0.0700562356056971	-0.0700562356056971	-0.0700562356056971	-0.0700562356056971
-0.104511979187716	-0.104511979187716	-0.104511979187716	-0.104511979187716	-0.104511979187716	-0.104511979187716
-0.116464151153752	-0.116464151153752	-0.116464151153752	-0.116464151153752	-0.116464151153752	-0.116464151153752
-0.0879617173147247	-0.0879617173147247	-0.0879617173147247	-0.0879617173147247	-0.0879617173147247	-0.0879617173147247
-0.00272952857475778	-0.00272952857475778	-0.00272952857475778	-0.00272952857475778	-0.00272952857475778	-0.00272952857475778
0.14840535287955	0.14840535287955	0.14840535287955	0.14840535287955	0.14840535287955	0.14840535287955
0.366783539970585	0.366783539970585	0.366783539970585	0.366783539970585	0.366783539970585	0.366783539970585
0.630754868059618	0.630754868059618	0.630754868059618	0.630754868059618	0.630754868059618	0.630754868059618
0.894662675699719	0.894662675699719	0.894662675699719	0.894662675699719	0.894662675699719	0.894662675699719
1.10211382747684	1.10211382747684	1.10211382747684	1.10211382747684	1.10211382747684	1.10211382747684
1.18915528659257	1.18915528659257	1.18915528659257	1.18915528659257	1.18915528659257	1.18915528659257
1.1275543510926	1.1275543510926	1.1275543510926	1.1275543510926	1.1275543510926	1.1275543510926
0.936579897438397	0.936579897438397	0.936579897438397	0.936579897438397	0.936579897438397	0.936579897438397
0.661512274501142	0.661512274501142	0.661512274501142	0.661512274501142	0.661512274501142	0.661512274501142
0.370193172679892	0.370193172679892	0.370193172679892	0.370193172679892	0.370193172679892	0.370193172679892
0.115962163480329	0.115962163480329	0.115962163480329	0.115962163480329	0.115962163480329	0.115962163480329
-0.0726701204691141	-0.0726701204691141	-0.0726701204691141	-0.0726701204691141	-0.0726701204691141	-0.0726701204691141
-0.184667241930631	-0.184667241930631	-0.184667241930631	-0.184667241930631	-0.184667241930631	-0.184667241930631
-0.225214703231801	-0.225214703231801	-0.225214703231801	-0.225214703231801	-0.225214703231801	-0.225214703231801
-0.210218520260086	-0.210218520260086	-0.210218520260086	-0.210218520260086	-0.210218520260086	-0.210218520260086
-0.161842243804883	-0.161842243804883	-0.161842243804883	-0.161842243804883	-0.161842243804883	-0.161842243804883
-0.0998861003678706	-0.0998861003678706	-0.0998861003678706	-0.0998861003678706	-0.0998861003678706	-0.0998861003678706
-0.0414040770669747	-0.0414040770669747	-0.0414040770669747	-0.0414040770669747	-0.0414040770669747	-0.0414040770669747
0.00307841854273866	0.00307841854273866	0.00307841854273866	0.00307841854273866	0.00307841854273866	0.00307841854273866
0.0338191958775452	0.0338191958775452	0.0338191958775452	0.0338191958775452	0.0338191958775452	0.0338191958775452
0.0535904339549995	0.0535904339549995	0.0535904339549995	0.0535904339549995	0.0535904339549995	0.0535904339549995
0.0664796569349206	0.0664796569349206	0.0664796569349206	0.0664796569349206	0.0664796569349206	0.0664796569349206
0.0767565290762062	0.0767565290762062	0.0767565290762062	0.0767565290762062	0.0767565290762062	0.0767565290762062
0.0864229860176304	0.0864229860176304	0.0864229860176304	0.0864229860176304	0.0864229860176304	0.0864229860176304
0.096711179956335	0.096711179956335	0.096711179956335	0.096711179956335	0.096711179956335	0.096711179956335
0.108200484535314	0.108200484535314	0.108200484535314	0.108200484535314	0.108200484535314	0.108200484535314
0.121055825598133	0.121055825598133	0.121055825598133	0.121055825598133	0.121055825598133	0.121055825598133
0.135391020148057	0.135391020148057	0.135391020148057	0.135391020148057	0.135391020148057	0.135391020148057
0.151242155017856	0.151242155017856	0.151242155017856	0.151242155017856	0.151242155017856	0.151242155017856
0.168600477989245	0.168600477989245	0.168600477989245	0.168600477989245	0.168600477989245	0.168600477989245
0.187412397792882	0.187412397792882	0.187412397792882	0.187412397792882	0.187412397792882	0.187412397792882
0.207581027146901	0.207581027146901	0.207581027146901	0.207581027146901	0.207581027146901	0.207581027146901
0.229010117167757	0.229010117167757	0.229010117167757	0.229010117167757	0.229010117167757	0.229010117167757
0.251477079236434	0.251477079236434	0.251477079236434	0.251477079236434	0.251477079236434	0.251477079236434
0.274691780582966	0.274691780582966	0.274691780582966	0.274691780582966	0.274691780582966	0.274691780582966
0.298344874690498	0.298344874690498	0.298344874690498	0.298344874690498	0.298344874690498	0.298344874690498
0.322107801295294	0.322107801295294	0.322107801295294	0.322107801295294	0.322107801295294	0.322107801295294
0.345632786386729	0.345632786386729	0.345632786386729	0.345632786386729	0.345632786386729	0.345632786386729
0.368552842207294	0.368552842207294	0.368552842207294	0.368552842207294	0.368552842207294	0.368552842207294
0.390481767252596	0.390481767252596	0.390481767252596	0.390481767252596	0.390481767252596	0.390481767252596
0.411014146271354	0.411014146271354	0.411014146271354	0.411014146271354	0.411014146271354	0.411014146271354
0.429725350265404	0.429725350265404	0.429725350265404	0.429725350265404	0.429725350265404	0.429725350265404
0.446171536489695	0.446171536489695	0.446171536489695	0.446171536489695	0.446171536489695	0.446171536489695
0.45996946381747	0.45996946381747	0.45996946381747	0.45996946381747	0.45996946381747	0.45996946381747
0.470863208631641	0.470863208631641	0.470863208631641	0.470863208631641	0.470863208631641	0.470863208631641
0.478571281145558	0.478571281145558	0.478571281145558	0.478571281145558	0.478571281145558	0.478571281145558
0.482888526899336	0.482888526899336	0.482888526899336	0.482888526899336	0.482888526899336	0.482888526899336
0.483688316147367	0.483688316147367	0.483688316147367	0.483688316147367	0.483688316147367	0.483688316147367
0.480922543858324	0.480922543858324	0.480922543858324	0.480922543858324	0.480922543858324	0.480922543858324
0.474621629715155	0.474621629715155	0.474621629715155	0.474621629715155	0.474621629715155	0.474621629715155
0.464894518115088	0.464894518115088	0.464894518115088	0.464894518115088	0.464894518115088	0.464894518115088
0.451928678169631	0.451928678169631	0.451928678169631	0.451928678169631	0.451928678169631	0.451928678169631
0.435990103704566	0.435990103704566	0.435990103704566	0.435990103704566	0.435990103704566	0.435990103704566
0.417423313259957	0.417423313259957	0.417423313259957	0.417423313259957	0.417423313259957	0.417423313259957
0.396651350090144	0.396651350090144	0.396651350090144	0.396651350090144	0.396651350090144	0.396651350090144
0.374151853993882	0.374151853993882	0.374151853993882	0.374151853993882	0.374151853993882	0.374151853993882
0.350237314835936	0.350237314835936	0.350237314835936	0.350237314835936	0.350237314835936	0.350237314835936
0.325350260140958	0.325350260140958	0.325350260140958	0.325350260140958	0.325350260140958	0.325350260140958
0.29994660179065	0.29994660179065	0.29994660179065	0.29994660179065	0.29994660179065	0.29994660179065
0.274439259200495	0.274439259200495	0.274439259200495	0.274439259200495	0.274439259200495	0.274439259200495
0.249198159319757	0.249198159319757	0.249198159319757	0.249198159319757	0.249198159319757	0.249198159319757
0.224550236631479	0.224550236631479	0.224550236631479	0.224550236631479	0.224550236631479	0.224550236631479
0.200779433152485	0.200779433152485	0.200779433152485	0.200779433152485	0.200779433152485	0.200779433152485
0.178126698433379	0.178126698433379	0.178126698433379	0.178126698433379	0.178126698433379	0.178126698433379
0.156789989558546	0.156789989558546	0.156789989558546	0.156789989558546	0.156789989558546	0.156789989558546
0.13692427114615	0.13692427114615	0.13692427114615	0.13692427114615	0.13692427114615	0.13692427114615
0.118638191115394	0.118638191115394	0.118638191115394	0.118638191115394	0.118638191115394	0.118638191115394
0.101984369738422	0.101984369738422	0.101984369738422	0.101984369738422	0.101984369738422	0.101984369738422
0.0869752148099679	0.0869752148099679	0.0869752148099679	0.0869752148099679	0.0869752148099679	0.0869752148099679
0.0767914890347093	0.0767914890347093	0.0767914890347093	0.0767914890347093	0.0767914890347093	0.0767914890347093
0.0770224059093329	0.0770224059093329	0.0770224059093329	0.0770224059093329	0.0770224059093329	0.0770224059093329
0.0770074810835873	0.0770074810835873	0.0770074810835873	0.0770074810835873	0.0770074810835873	0.0770074810835873
0.0769951018169912	0.0769951018169912	0.0769951018169912	0.0769951018169912	0.0769951018169912	0.0769951018169912
0.0769886242619214	0.0769886242619214	0.0769886242619214	0.0769886242619214	0.0769886242619214	0.0769886242619214
0.076994728750382	0.076994728750382	0.076994728750382	0.076994728750382	0.076994728750382	0.076994728750382
0.0770235915047568	0.0770235915047568	0.0770235915047568	0.0770235915047568	0.0770235915047568	0.0770235915047568
0.0771012616793492	0.0771012616793492	0.0771012616793492	0.0771012616793492	0.0771012616793492	0.0771012616793492
0.0772476153579799	0.0772476153579799	0.0772476153579799	0.0772476153579799	0.0772476153579799	0.0772476153579799
0.0774807373807885	0.0774807373807885	0.0774807373807885	0.0774807373807885	0.0774807373807885	0.0774807373807885
0.0778473110142759	0.0778473110142759	0.0778473110142759	0.0778473110142759	0.0778473110142759	0.0778473110142759
0.0784226933302094	0.0784226933302094	0.0784226933302094	0.0784226933302094	0.0784226933302094	0.0784226933302094
0.0793109152056232	0.0793109152056232	0.0793109152056232	0.0793109152056232	0.0793109152056232	0.0793109152056232
0.0806446813228175	0.0806446813228175	0.0806446813228175	0.0806446813228175	0.0806446813228175	0.0806446813228175
0.0825853701693592	0.0825853701693592	0.0825853701693592	0.0825853701693592	0.0825853701693592	0.0825853701693592
0.0853230340380814	0.0853230340380814	0.0853230340380814	0.0853230340380814	0.0853230340380814	0.0853230340380814
0.0890763990270838	0.0890763990270838	0.0890763990270838	0.0890763990270838	0.0890763990270838	0.0890763990270838
0.0940928650397327	0.0940928650397327	0.0940928650397327	0.0940928650397327	0.0940928650397327	0.0940928650397327
0.100648505784661	0.100648505784661	0.100648505784661	0.100648505784661	0.100648505784661	0.100648505784661
0.109048068775767	0.109048068775767	0.109048068775767	0.109048068775767	0.109048068775767	0.109048068775767
0.119607101895735	0.119607101895735	0.119607101895735	0.119607101895735	0.119607101895735	0.119607101895735
0.132505539043601	0.132505539043601	0.132505539043601	0.132505539043601	0.132505539043601	0.132505539043601
0.14785412499533	0.14785412499533	0.14785412499533	0.14785412499533	0.14785412499533	0.14785412499533
0.165618836943985	0.165618836943985	0.165618836943985	0.165618836943985	0.165618836943985	0.165618836943985
0.185601072710693	0.185601072710693	0.185601072710693	0.185601072710693	0.185601072710693	0.185601072710693
0.207437650744647	0.207437650744647	0.207437650744647	0.207437650744647	0.207437650744647	0.207437650744647
0.230600810123105	0.230600810123105	0.230600810123105	0.230600810123105	0.230600810123105	0.230600810123105
0.254398210551391	0.254398210551391	0.254398210551391	0.254398210551391	0.254398210551391	0.254398210551391
0.277972932362893	0.277972932362893	0.277972932362893	0.277972932362893	0.277972932362893	0.277972932362893
0.300303476519066	0.300303476519066	0.300303476519066	0.300303476519066	0.300303476519066	0.300303476519066
0.320203764609429	0.320203764609429	0.320203764609429	0.320203764609429	0.320203764609429	0.320203764609429
0.336433135674193	0.336433135674193	0.336433135674193	0.336433135674193	0.336433135674193	0.336433135674193
0.348233893234202	0.348233893234202	0.348233893234202	0.348233893234202	0.348233893234202	0.348233893234202
0.354935299988529	0.354935299988529	0.354935299988529	0.354935299988529	0.354935299988529	0.354935299988529
0.356124042690369	0.356124042690369	0.356124042690369	0.356124042690369	0.356124042690369	0.356124042690369
0.351679171692912	0.351679171692912	0.351679171692912	0.351679171692912	0.351679171692912	0.351679171692912
0.341772100949354	0.341772100949354	0.341772100949354	0.341772100949354	0.341772100949354	0.341772100949354
0.326866608012888	0.326866608012888	0.326866608012888	0.326866608012888	0.326866608012888	0.326866608012888
0.307718834036708	0.307718834036708	0.307718834036708	0.307718834036708	0.307718834036708	0.307718834036708
0.285377283774008	0.285377283774008	0.285377283774008	0.285377283774008	0.285377283774008	0.285377283774008
0.260970121537807	0.260970121537807	0.260970121537807	0.260970121537807	0.260970121537807	0.260970121537807
0.235453452051257	0.235453452051257	0.235453452051257	0.235453452051257	0.235453452051257	0.235453452051257
0.210083700827508	0.210083700827508	0.210083700827508	0.210083700827508	0.210083700827508	0.210083700827508
0.185817082289878	0.185817082289878	0.185817082289878	0.185817082289878	0.185817082289878	0.185817082289878
0.163281184903791	0.163281184903791	0.163281184903791	0.163281184903791	0.163281184903791	0.163281184903791
0.142774971176778	0.142774971176778	0.142774971176778	0.142774971176778	0.142774971176778	0.142774971176778
0.124268777658474	0.124268777658474	0.124268777658474	0.124268777658474	0.124268777658474	0.124268777658474
0.107404314940624	0.107404314940624	0.107404314940624	0.107404314940624	0.107404314940624	0.107404314940624
0.0914446587071932	0.0914446587071932	0.0914446587071932	0.0914446587071932	0.0914446587071932	0.0914446587071932
0.0741995281614138	0.0741995281614138	0.0741995281614138	0.0741995281614138	0.0741995281614138	0.0741995281614138
0.0525333938467099	0.0525333938467099	0.0525333938467099	0.0525333938467099	0.0525333938467099	0.0525333938467099
0.0238650428256686	0.0238650428256686	0.0238650428256686	0.0238650428256686	0.0238650428256686	0.0238650428256686
-0.0131764351774406	-0.0131764351774406	-0.0131764351774406	-0.0131764351774406	-0.0131764351774406	-0.0131764351774406
-0.0549744190066492	-0.0549744190066492	-0.0549744190066492	-0.0549744190066492	-0.0549744190066492	-0.0549744190066492
-0.092247549492949	-0.092247549492949	-0.092247549492949	-0.092247549492949	-0.092247549492949	-0.092247549492949
-0.110465041473657	-0.110465041473657	-0.110465041473657	-0.110465041473657	-0.110465041473657	-0.110465041473657
-0.0921163333806219	-0.0921163333806219	-0.0921163333806219	-0.0921163333806219	-0.0921163333806219	-0.0921163333806219
-0.0196528850756939	-0.0196528850756939	-0.0196528850756939	-0.0196528850756939	-0.0196528850756939	-0.0196528850756939
0.117879059151072	0.117879059151072	0.117879059151072	0.117879059151072	0.117879059151072	0.117879059151072
0.323114375790977	0.323114375790977	0.323114375790977	0.323114375790977	0.323114375790977	0.323114375790977
0.581961460163708	0.581961460163708	0.581961460163708	0.581961460163708	0.581961460163708	0.581961460163708
0.849255384173733	0.849255384173733	0.849255384173733	0.849255384173733	0.849255384173733	0.849255384173733
1.0705262802484	1.0705262802484	1.0705262802484	1.0705262802484	1.0705262802484	1.0705262802484
1.18534708458614	1.18534708458614	1.18534708458614	1.18534708458614	1.18534708458614	1.18534708458614
1.14909132696551	1.14909132696551	1.14909132696551	1.14909132696551	1.14909132696551	1.14909132696551
0.977650635447608	0.977650635447608	0.977650635447608	0.977650635447608	0.977650635447608	0.977650635447608
0.713760080060836	0.713760080060836	0.713760080060836	0.713760080060836	0.713760080060836	0.713760080060836
0.419376157225055	0.419376157225055	0.419376157225055	0.419376157225055	0.419376157225055	0.419376157225055
0.157119909353793	0.157119909353793	0.157119909353793	0.157119909353793	0.157119909353793	0.157119909353793
-0.0420322069986825	-0.0420322069986825	-0.0420322069986825	-0.0420322069986825	-0.0420322069986825	-0.0420322069986825
-0.164673657259589	-0.164673657259589	-0.164673657259589	-0.164673657259589	-0.164673657259589	-0.164673657259589
-0.213962048264117	-0.213962048264117	-0.213962048264117	-0.213962048264117	-0.213962048264117	-0.213962048264117
-0.204614268924873	-0.204614268924873	-0.204614268924873	-0.204614268924873	-0.204614268924873	-0.204614268924873
-0.159061192496761	-0.159061192496761	-0.159061192496761	-0.159061192496761	-0.159061192496761	-0.159061192496761
-0.0979166700111553	-0.0979166700111553	-0.0979166700111553	-0.0979166700111553	-0.0979166700111553	-0.0979166700111553
-0.0390164387212318	-0.0390164387212318	-0.0390164387212318	-0.0390164387212318	-0.0390164387212318	-0.0390164387212318
0.00626930233125983	0.00626930233125983	0.00626930233125983	0.00626930233125983	0.00626930233125983	0.00626930233125983
0.0375851523037872	0.0375851523037872	0.0375851523037872	0.0375851523037872	0.0375851523037872	0.0375851523037872
0.0575023407701355	0.0575023407701355	0.0575023407701355	0.0575023407701355	0.0575023407701355	0.0575023407701355
0.0702574961391783	0.0702574961391783	0.0702574961391783	0.0702574961391783	0.0702574961391783	0.0702574961391783
0.0802244521014768	0.0802244521014768	0.0802244521014768	0.0802244521014768	0.0802244521014768	0.0802244521014768
0.0895041764944049	0.0895041764944049	0.0895041764944049	0.0895041764944049	0.0895041764944049	0.0895041764944049
0.0994030940262235	0.0994030940262235	0.0994030940262235	0.0994030940262235	0.0994030940262235	0.0994030940262235
0.110493005188626	0.110493005188626	0.110493005188626	0.110493005188626	0.110493005188626	0.110493005188626
0.122964054185227	0.122964054185227	0.122964054185227	0.122964054185227	0.122964054185227	0.122964054185227
0.136927482659901	0.136927482659901	0.136927482659901	0.136927482659901	0.136927482659901	0.136927482659901
0.152421347014308	0.152421347014308	0.152421347014308	0.152421347014308	0.152421347014308	0.152421347014308
0.169437046016813	0.169437046016813	0.169437046016813	0.169437046016813	0.169437046016813	0.169437046016813
0.187919320802486	0.187919320802486	0.187919320802486	0.187919320802486	0.187919320802486	0.187919320802486
0.207776851714491	0.207776851714491	0.207776851714491	0.207776851714491	0.207776851714491	0.207776851714491
0.228900676164409	0.228900676164409	0.228900676164409	0.228900676164409	0.228900676164409	0.228900676164409
0.25104387177217	0.25104387177217	0.25104387177217	0.25104387177217	0.25104387177217	0.25104387177217
0.273920496464262	0.273920496464262	0.273920496464262	0.273920496464262	0.273920496464262	0.273920496464262
0.297222145667708	0.297222145667708	0.297222145667708	0.297222145667708	0.297222145667708	0.297222145667708
0.320617952310065	0.320617952310065	0.320617952310065	0.320617952310065	0.320617952310065	0.320617952310065
0.343754586819426	0.343754586819426	0.343754586819426	0.343754586819426	0.343754586819426	0.343754586819426
0.366256257124419	0.366256257124419	0.366256257124419	0.366256257124419	0.366256257124419	0.366256257124419
0.387724708654206	0.387724708654206	0.387724708654206	0.387724708654206	0.387724708654206	0.387724708654206
0.407739224338482	0.407739224338482	0.407739224338482	0.407739224338482	0.407739224338482	0.407739224338482
0.42585662460748	0.42585662460748	0.42585662460748	0.42585662460748	0.42585662460748	0.42585662460748
0.441616444529056	0.441616444529056	0.441616444529056	0.441616444529056	0.441616444529056	0.441616444529056
0.454701869526738	0.454701869526738	0.454701869526738	0.454701869526738	0.454701869526738	0.454701869526738
0.46481054036993	0.46481054036993	0.46481054036993	0.46481054036993	0.46481054036993	0.46481054036993
0.471663043354028	0.471663043354028	0.471663043354028	0.471663043354028	0.471663043354028	0.471663043354028
0.475061918068343	0.475061918068343	0.475061918068343	0.475061918068343	0.475061918068343	0.475061918068343
0.474891657396102	0.474891657396102	0.474891657396102	0.474891657396102	0.474891657396102	0.474891657396102
0.471118707514448	0.471118707514448	0.471118707514448	0.471118707514448	0.471118707514448	0.471118707514448
0.463791467894436	0.463791467894436	0.463791467894436	0.463791467894436	0.463791467894436	0.463791467894436
0.453040291301041	0.453040291301041	0.453040291301041	0.453040291301041	0.453040291301041	0.453040291301041
0.439077483793151	0.439077483793151	0.439077483793151	0.439077483793151	0.439077483793151	0.439077483793151
0.422197304723569	0.422197304723569	0.422197304723569	0.422197304723569	0.422197304723569	0.422197304723569
0.402775966739015	0.402775966739015	0.402775966739015	0.402775966739015	0.402775966739015	0.402775966739015
0.381271608404194	0.381271608404194	0.381271608404194	0.381271608404194	0.381271608404194	0.381271608404194
0.358058623605416	0.358058623605416	0.358058623605416	0.358058623605416	0.358058623605416	0.358058623605416
0.333517179764468	0.333517179764468	0.333517179764468	0.333517179764468	0.333517179764468	0.333517179764468
0.308132245781313	0.308132245781313	0.308132245781313	0.308132245781313	0.308132245781313	0.308132245781313
0.282347122389202	0.282347122389202	0.282347122389202	0.282347122389202	0.282347122389202	0.282347122389202
0.256563442154674	0.256563442154674	0.256563442154674	0.256563442154674	0.256563442154674	0.256563442154674
0.231141169477555	0.231141169477555	0.231141169477555	0.231141169477555	0.231141169477555	0.231141169477555
0.206398600590962	0.206398600590962	0.206398600590962	0.206398600590962	0.206398600590962	0.206398600590962
0.182612363561297	0.182612363561297	0.182612363561297	0.182612363561297	0.182612363561297	0.182612363561297
0.160017418288251	0.160017418288251	0.160017418288251	0.160017418288251	0.160017418288251	0.160017418288251
0.138807056504803	0.138807056504803	0.138807056504803	0.138807056504803	0.138807056504803	0.138807056504803
0.119130494279966	0.119130494279966	0.119130494279966	0.119130494279966	0.119130494279966	0.119130494279966
0.101071671171107	0.101071671171107	0.101071671171107	0.101071671171107	0.101071671171107	0.101071671171107
0.0846688931995832	0.0846688931995832	0.0846688931995832	0.0846688931995832	0.0846688931995832	0.0846688931995832
0.0696278945453953	0.0696278945453953	0.0696278945453953	0.0696278945453953	0.0696278945453953	0.0696278945453953
0.0657984819348485	0.0657984819348485	0.0657984819348485	0.0657984819348485	0.0657984819348485	0.0657984819348485
0.065457270651239	0.065457270651239	0.065457270651239	0.065457270651239	0.065457270651239	0.065457270651239
0.0651184275480673	0.0651184275480673	0.0651184275480673	0.0651184275480673	0.0651184275480673	0.0651184275480673
0.0647847698929238	0.0647847698929238	0.0647847698929238	0.0647847698929238	0.0647847698929238	0.0647847698929238
0.0644611706214945	0.0644611706214945	0.0644611706214945	0.0644611706214945	0.0644611706214945	0.0644611706214945
0.0641666814043579	0.0641666814043579	0.0641666814043579	0.0641666814043579	0.0641666814043579	0.0641666814043579
0.0639064517985725	0.0639064517985725	0.0639064517985725	0.0639064517985725	0.0639064517985725	0.0639064517985725
0.0636835340863223	0.0636835340863223	0.0636835340863223	0.0636835340863223	0.0636835340863223	0.0636835340863223
0.0635228202395682	0.0635228202395682	0.0635228202395682	0.0635228202395682	0.0635228202395682	0.0635228202395682
0.0634710419200488	0.0634710419200488	0.0634710419200488	0.0634710419200488	0.0634710419200488	0.0634710419200488
0.0635967704792798	0.0635967704792798	0.0635967704792798	0.0635967704792798	0.0635967704792798	0.0635967704792798
0.0639904169585543	0.0639904169585543	0.0639904169585543	0.0639904169585543	0.0639904169585543	0.0639904169585543
0.0647642320889425	0.0647642320889425	0.0647642320889425	0.0647642320889425	0.0647642320889425	0.0647642320889425
0.0660523062912921	0.0660523062912921	0.0660523062912921	0.0660523062912921	0.0660523062912921	0.0660523062912921
0.0679691441632009	0.0679691441632009	0.0679691441632009	0.0679691441632009	0.0679691441632009	0.0679691441632009
0.0707676570626106	0.0707676570626106	0.0707676570626106	0.0707676570626106	0.0707676570626106	0.0707676570626106
0.0747890205372299	0.0747890205372299	0.0747890205372299	0.0747890205372299	0.0747890205372299	0.0747890205372299
0.0803363665834527	0.0803363665834527	0.0803363665834527	0.0803363665834527	0.0803363665834527	0.0803363665834527
0.0876747344854566	0.0876747344854566	0.0876747344854566	0.0876747344854566	0.0876747344854566	0.0876747344854566
0.0970310708152024	0.0970310708152024	0.0970310708152024	0.0970310708152024	0.0970310708152024	0.0970310708152024
0.108594229432434	0.108594229432434	0.108594229432434	0.108594229432434	0.108594229432434	0.108594229432434
0.122514971484679	0.122514971484679	0.122514971484679	0.122514971484679	0.122514971484679	0.122514971484679
0.138905965407249	0.138905965407249	0.138905965407249	0.138905965407249	0.138905965407249	0.138905965407249
0.157821218808751	0.157821218808751	0.157821218808751	0.157821218808751	0.157821218808751	0.157821218808751
0.178885691180591	0.178885691180591	0.178885691180591	0.178885691180591	0.178885691180591	0.178885691180591
0.201451159577023	0.201451159577023	0.201451159577023	0.201451159577023	0.201451159577023	0.201451159577023
0.224786584400086	0.224786584400086	0.224786584400086	0.224786584400086	0.224786584400086	0.224786584400086
0.24807838354415	0.24807838354415	0.24807838354415	0.24807838354415	0.24807838354415	0.24807838354415
0.270430432395917	0.270430432395917	0.270430432395917	0.270430432395917	0.270430432395917	0.270430432395917
0.290864063834421	0.290864063834421	0.290864063834421	0.290864063834421	0.290864063834421	0.290864063834421
0.30831806823103	0.30831806823103	0.30831806823103	0.30831806823103	0.30831806823103	0.30831806823103
0.32164869344944	0.32164869344944	0.32164869344944	0.32164869344944	0.32164869344944	0.32164869344944
0.329851422836676	0.329851422836676	0.329851422836676	0.329851422836676	0.329851422836676	0.329851422836676
0.3325552412771	0.3325552412771	0.3325552412771	0.3325552412771	0.3325552412771	0.3325552412771
0.32966028315397	0.32966028315397	0.32966028315397	0.32966028315397	0.32966028315397	0.32966028315397
0.321299503154935	0.321299503154935	0.321299503154935	0.321299503154935	0.321299503154935	0.321299503154935
0.307838806970759	0.307838806970759	0.307838806970759	0.307838806970759	0.307838806970759	0.307838806970759
0.289877051295323	0.289877051295323	0.289877051295323	0.289877051295323	0.289877051295323	0.289877051295323
0.268246043825624	0.268246043825624	0.268246043825624	0.268246043825624	0.268246043825624	0.268246043825624
0.244010543261772	0.244010543261772	0.244010543261772	0.244010543261772	0.244010543261772	0.244010543261772
0.218468259306998	0.218468259306998	0.218468259306998	0.218468259306998	0.218468259306998	0.218468259306998
0.192576083366042	0.192576083366042	0.192576083366042	0.192576083366042	0.192576083366042	0.192576083366042
0.16730282331813	0.16730282331813	0.16730282331813	0.16730282331813	0.16730282331813	0.16730282331813
0.143781122521437	0.143781122521437	0.143781122521437	0.143781122521437	0.143781122521437	0.143781122521437
0.122588403022441	0.122588403022441	0.122588403022441	0.122588403022441	0.122588403022441	0.122588403022441
0.103746703640052	0.103746703640052	0.103746703640052	0.103746703640052	0.103746703640052	0.103746703640052
0.0867226799656119	0.0867226799656119	0.0867226799656119	0.0867226799656119	0.0867226799656119	0.0867226799656119
0.0704276043628959	0.0704276043628959	0.0704276043628959	0.0704276043628959	0.0704276043628959	0.0704276043628959
0.0532173659681113	0.0532173659681113	0.0532173659681113	0.0532173659681113	0.0532173659681113	0.0532173659681113
0.0327793356496755	0.0327793356496755	0.0327793356496755	0.0327793356496755	0.0327793356496755	0.0327793356496755
0.00527583063308668	0.00527583063308668	0.00527583063308668	0.00527583063308668	0.00527583063308668	0.00527583063308668
-0.0307544161021217	-0.0307544161021217	-0.0307544161021217	-0.0307544161021217	-0.0307544161021217	-0.0307544161021217
-0.0724135369482062	-0.0724135369482062	-0.0724135369482062	-0.0724135369482062	-0.0724135369482062	-0.0724135369482062
-0.111993281530865	-0.111993281530865	-0.111993281530865	-0.111993281530865	-0.111993281530865	-0.111993281530865
-0.134344629128148	-0.134344629128148	-0.134344629128148	-0.134344629128148	-0.134344629128148	-0.134344629128148
-0.122282715184891	-0.122282715184891	-0.122282715184891	-0.122282715184891	-0.122282715184891	-0.122282715184891
-0.0592203123346056	-0.0592203123346056	-0.0592203123346056	-0.0592203123346056	-0.0592203123346056	-0.0592203123346056
0.0682921778589891	0.0682921778589891	0.0682921778589891	0.0682921778589891	0.0682921778589891	0.0682921778589891
0.265338070174698	0.265338070174698	0.265338070174698	0.265338070174698	0.265338070174698	0.265338070174698
0.518138413976523	0.518138413976523	0.518138413976523	0.518138413976523	0.518138413976523	0.518138413976523
0.790537617562826	0.790537617562826	0.790537617562826	0.790537617562826	0.790537617562826	0.790537617562826
1.02463430097912	1.02463430097912	1.02463430097912	1.02463430097912	1.02463430097912	1.02463430097912
1.14792303030831	1.14792303030831	1.14792303030831	1.14792303030831	1.14792303030831	1.14792303030831
1.12374793817075	1.12374793817075	1.12374793817075	1.12374793817075	1.12374793817075	1.12374793817075
0.957215891349563	0.957215891349563	0.957215891349563	0.957215891349563	0.957215891349563	0.957215891349563
0.694088495892406	0.694088495892406	0.694088495892406	0.694088495892406	0.694088495892406	0.694088495892406
0.401187598221727	0.401187598221727	0.401187598221727	0.401187598221727	0.401187598221727	0.401187598221727
0.136623348347838	0.136623348347838	0.136623348347838	0.136623348347838	0.136623348347838	0.136623348347838
-0.0637269175467899	-0.0637269175467899	-0.0637269175467899	-0.0637269175467899	-0.0637269175467899	-0.0637269175467899
-0.186848701631697	-0.186848701631697	-0.186848701631697	-0.186848701631697	-0.186848701631697	-0.186848701631697
-0.236455160175026	-0.236455160175026	-0.236455160175026	-0.236455160175026	-0.236455160175026	-0.236455160175026
-0.2276972188788	-0.2276972188788	-0.2276972188788	-0.2276972188788	-0.2276972188788	-0.2276972188788
-0.180698060534401	-0.180698060534401	-0.180698060534401	-0.180698060534401	-0.180698060534401	-0.180698060534401
-0.119105761423313	-0.119105761423313	-0.119105761423313	-0.119105761423313	-0.119105761423313	-0.119105761423313
-0.0614253337549171	-0.0614253337549171	-0.0614253337549171	-0.0614253337549171	-0.0614253337549171	-0.0614253337549171
-0.0165970345914123	-0.0165970345914123	-0.0165970345914123	-0.0165970345914123	-0.0165970345914123	-0.0165970345914123
0.0131491471545949	0.0131491471545949	0.0131491471545949	0.0131491471545949	0.0131491471545949	0.0131491471545949
0.0317633634282791	0.0317633634282791	0.0317633634282791	0.0317633634282791	0.0317633634282791	0.0317633634282791
0.044037839179792	0.044037839179792	0.044037839179792	0.044037839179792	0.044037839179792	0.044037839179792
0.0535571000403695	0.0535571000403695	0.0535571000403695	0.0535571000403695	0.0535571000403695	0.0535571000403695
0.0626983643038071	0.0626983643038071	0.0626983643038071	0.0626983643038071	0.0626983643038071	0.0626983643038071
0.0725706587176962	0.0725706587176962	0.0725706587176962	0.0725706587176962	0.0725706587176962	0.0725706587176962
0.0836486440927804	0.0836486440927804	0.0836486440927804	0.0836486440927804	0.0836486440927804	0.0836486440927804
0.0961458851022182	0.0961458851022182	0.0961458851022182	0.0961458851022182	0.0961458851022182	0.0961458851022182
0.11016792329933	0.11016792329933	0.11016792329933	0.11016792329933	0.11016792329933	0.11016792329933
0.125752830450129	0.125752830450129	0.125752830450129	0.125752830450129	0.125752830450129	0.125752830450129
0.142873300170984	0.142873300170984	0.142873300170984	0.142873300170984	0.142873300170984	0.142873300170984
0.161469039943177	0.161469039943177	0.161469039943177	0.161469039943177	0.161469039943177	0.161469039943177
0.18141977706141	0.18141977706141	0.18141977706141	0.18141977706141	0.18141977706141	0.18141977706141
0.202553274434582	0.202553274434582	0.202553274434582	0.202553274434582	0.202553274434582	0.202553274434582
0.224653487623603	0.224653487623603	0.224653487623603	0.224653487623603	0.224653487623603	0.224653487623603
0.247460564841393	0.247460564841393	0.247460564841393	0.247460564841393	0.247460564841393	0.247460564841393
0.270670846952886	0.270670846952886	0.270670846952886	0.270670846952886	0.270670846952886	0.270670846952886
0.293936867475028	0.293936867475028	0.293936867475028	0.293936867475028	0.293936867475028	0.293936867475028
0.316867352576777	0.316867352576777	0.316867352576777	0.316867352576777	0.316867352576777	0.316867352576777
0.3390272210791	0.3390272210791	0.3390272210791	0.3390272210791	0.3390272210791	0.3390272210791
0.359950962587105	0.359950962587105	0.359950962587105	0.359950962587105	0.359950962587105	0.359950962587105
0.379282352680124	0.379282352680124	0.379282352680124	0.379282352680124	0.379282352680124	0.379282352680124
0.396546797076278	0.396546797076278	0.396546797076278	0.396546797076278	0.396546797076278	0.396546797076278
0.411290592000446	0.411290592000446	0.411290592000446	0.411290592000446	0.411290592000446	0.411290592000446
0.4231391760024	0.4231391760024	0.4231391760024	0.4231391760024	0.4231391760024	0.4231391760024
0.431797129956794	0.431797129956794	0.431797129956794	0.431797129956794	0.431797129956794	0.431797129956794
0.437048177063172	0.437048177063172	0.437048177063172	0.437048177063172	0.437048177063172	0.437048177063172
0.438755182845967	0.438755182845967	0.438755182845967	0.438755182845967	0.438755182845967	0.438755182845967
0.436860155154497	0.436860155154497	0.436860155154497	0.436860155154497	0.436860155154497	0.436860155154497
0.431384244162969	0.431384244162969	0.431384244162969	0.431384244162969	0.431384244162969	0.431384244162969
0.422427742370479	0.422427742370479	0.422427742370479	0.422427742370479	0.422427742370479	0.422427742370479
0.410140314343986	0.410140314343986	0.410140314343986	0.410140314343986	0.410140314343986	0.410140314343986
0.394697211064704	0.394697211064704	0.394697211064704	0.394697211064704	0.394697211064704	0.394697211064704
0.376502865383659	0.376502865383659	0.376502865383659	0.376502865383659	0.376502865383659	0.376502865383659
0.35598054852471	0.35598054852471	0.35598054852471	0.35598054852471	0.35598054852471	0.35598054852471
0.333549502069155	0.333549502069155	0.333549502069155	0.333549502069155	0.333549502069155	0.333549502069155
0.309624937955734	0.309624937955734	0.309624937955734	0.309624937955734	0.309624937955734	0.309624937955734
0.284618038480623	0.284618038480623	0.284618038480623	0.284618038480623	0.284618038480623	0.284618038480623
0.258935956297441	0.258935956297441	0.258935956297441	0.258935956297441	0.258935956297441	0.258935956297441
0.232981814417245	0.232981814417245	0.232981814417245	0.232981814417245	0.232981814417245	0.232981814417245
0.207154706208533	0.207154706208533	0.207154706208533	0.207154706208533	0.207154706208533	0.207154706208533
0.181849695397242	0.181849695397242	0.181849695397242	0.181849695397242	0.181849695397242	0.181849695397242
0.157451815158886	0.157451815158886	0.157451815158886	0.157451815158886	0.157451815158886	0.157451815158886
0.134208172959611	0.134208172959611	0.134208172959611	0.134208172959611	0.134208172959611	0.134208172959611
0.11230771975549	0.11230771975549	0.11230771975549	0.11230771975549	0.11230771975549	0.11230771975549
0.0919098483436124	0.0919098483436124	0.0919098483436124	0.0919098483436124	0.0919098483436124	0.0919098483436124
0.0731210321087374	0.0731210321087374	0.0731210321087374	0.0731210321087374	0.0731210321087374	0.0731210321087374
0.0559993233043631	0.0559993233043631	0.0559993233043631	0.0559993233043631	0.0559993233043631	0.0559993233043631
0.0405585562708185	0.0405585562708185	0.0405585562708185	0.0405585562708185	0.0405585562708185	0.0405585562708185
0.0297879156312743	0.0297879156312743	0.0297879156312743	0.0297879156312743	0.0297879156312743	0.0297879156312743
0.0297440128698963	0.0297440128698963	0.0297440128698963	0.0297440128698963	0.0297440128698963	0.0297440128698963
0.0293021654350138	0.0293021654350138	0.0293021654350138	0.0293021654350138	0.0293021654350138	0.0293021654350138
0.0288678042670277	0.0288678042670277	0.0288678042670277	0.0288678042670277	0.0288678042670277	0.0288678042670277
0.0284435713971543	0.0284435713971543	0.0284435713971543	0.0284435713971543	0.0284435713971543	0.0284435713971543
0.0280349098239668	0.0280349098239668	0.0280349098239668	0.0280349098239668	0.0280349098239668	0.0280349098239668
0.0276540639017501	0.0276540639017501	0.0276540639017501	0.0276540639017501	0.0276540639017501	0.0276540639017501
0.0273200816817907	0.0273200816817907	0.0273200816817907	0.0273200816817907	0.0273200816817907	0.0273200816817907
0.0270588149123775	0.0270588149123775	0.0270588149123775	0.0270588149123775	0.0270588149123775	0.0270588149123775
0.0269132488930752	0.0269132488930752	0.0269132488930752	0.0269132488930752	0.0269132488930752	0.0269132488930752
0.0269363878136215	0.0269363878136215	0.0269363878136215	0.0269363878136215	0.0269363878136215	0.0269363878136215
0.0271972364241227	0.0271972364241227	0.0271972364241227	0.0271972364241227	0.0271972364241227	0.0271972364241227
0.0278018321654409	0.0278018321654409	0.0278018321654409	0.0278018321654409	0.0278018321654409	0.0278018321654409
0.0288932950861072	0.0288932950861072	0.0288932950861072	0.0288932950861072	0.0288932950861072	0.0288932950861072
0.0306518278423225	0.0306518278423225	0.0306518278423225	0.0306518278423225	0.0306518278423225	0.0306518278423225
0.0332947156979568	0.0332947156979568	0.0332947156979568	0.0332947156979568	0.0332947156979568	0.0332947156979568
0.0370763265245497	0.0370763265245497	0.0370763265245497	0.0370763265245497	0.0370763265245497	0.0370763265245497
0.0422593028267111	0.0422593028267111	0.0422593028267111	0.0422593028267111	0.0422593028267111	0.0422593028267111
0.0490879913224802	0.0490879913224802	0.0490879913224802	0.0490879913224802	0.0490879913224802	0.0490879913224802
0.0579784275747536	0.0579784275747536	0.0579784275747536	0.0579784275747536	0.0579784275747536	0.0579784275747536
0.0692316780350193	0.0692316780350193	0.0692316780350193	0.0692316780350193	0.0692316780350193	0.0692316780350193
0.0830012128980639	0.0830012128980639	0.0830012128980639	0.0830012128980639	0.0830012128980639	0.0830012128980639
0.0992929061019729	0.0992929061019729	0.0992929061019729	0.0992929061019729	0.0992929061019729	0.0992929061019729
0.117965035328131	0.117965035328131	0.117965035328131	0.117965035328131	0.117965035328131	0.117965035328131
0.13872828200122	0.13872828200122	0.13872828200122	0.13872828200122	0.13872828200122	0.13872828200122
0.161148393439281	0.161148393439281	0.161148393439281	0.161148393439281	0.161148393439281	0.161148393439281
0.184723218229288	0.184723218229288	0.184723218229288	0.184723218229288	0.184723218229288	0.184723218229288
0.208366671164039	0.208366671164039	0.208366671164039	0.208366671164039	0.208366671164039	0.208366671164039
0.230859774693241	0.230859774693241	0.230859774693241	0.230859774693241	0.230859774693241	0.230859774693241
0.251101133705717	0.251101133705717	0.251101133705717	0.251101133705717	0.251101133705717	0.251101133705717
0.268106935529411	0.268106935529411	0.268106935529411	0.268106935529411	0.268106935529411	0.268106935529411
0.281010949931389	0.281010949931389	0.281010949931389	0.281010949931389	0.281010949931389	0.281010949931389
0.289064529117834	0.289064529117834	0.289064529117834	0.289064529117834	0.289064529117834	0.289064529117834
0.291636607734051	0.291636607734051	0.291636607734051	0.291636607734051	0.291636607734051	0.291636607734051
0.288124754160692	0.288124754160692	0.288124754160692	0.288124754160692	0.288124754160692	0.288124754160692
0.278631642751033	0.278631642751033	0.278631642751033	0.278631642751033	0.278631642751033	0.278631642751033
0.264132543807832	0.264132543807832	0.264132543807832	0.264132543807832	0.264132543807832	0.264132543807832
0.245602548371431	0.245602548371431	0.245602548371431	0.245602548371431	0.245602548371431	0.245602548371431
0.223994580783898	0.223994580783898	0.223994580783898	0.223994580783898	0.223994580783898	0.223994580783898
0.20023939868903	0.20023939868903	0.20023939868903	0.20023939868903	0.20023939868903	0.20023939868903
0.175245593032351	0.175245593032351	0.175245593032351	0.175245593032351	0.175245593032351	0.175245593032351
0.149899588061113	0.149899588061113	0.149899588061113	0.149899588061113	0.149899588061113	0.149899588061113
0.125065641324295	0.125065641324295	0.125065641324295	0.125065641324295	0.125065641324295	0.125065641324295
0.101585843672602	0.101585843672602	0.101585843672602	0.101585843672602	0.101585843672602	0.101585843672602
0.0802785562399241	0.0802785562399241	0.0802785562399241	0.0802785562399241	0.0802785562399241	0.0802785562399241
0.0613844263481835	0.0613844263481835	0.0613844263481835	0.0613844263481835	0.0613844263481835	0.0613844263481835
0.0443659946765203	0.0443659946765203	0.0443659946765203	0.0443659946765203	0.0443659946765203	0.0443659946765203
0.0280631197902945	0.0280631197902945	0.0280631197902945	0.0280631197902945	0.0280631197902945	0.0280631197902945
0.0104357831453851	0.0104357831453851	0.0104357831453851	0.0104357831453851	0.0104357831453851	0.0104357831453851
-0.0114359109118105	-0.0114359109118105	-0.0114359109118105	-0.0114359109118105	-0.0114359109118105	-0.0114359109118105
-0.0408886968303358	-0.0408886968303358	-0.0408886968303358	-0.0408886968303358	-0.0408886968303358	-0.0408886968303358
-0.0787166399987158	-0.0787166399987158	-0.0787166399987158	-0.0787166399987158	-0.0787166399987158	-0.0787166399987158
-0.120853281177211	-0.120853281177211	-0.120853281177211	-0.120853281177211	-0.120853281177211	-0.120853281177211
-0.156998642054351	-0.156998642054351	-0.156998642054351	-0.156998642054351	-0.156998642054351	-0.156998642054351
-0.171313053574371	-0.171313053574371	-0.171313053574371	-0.171313053574371	-0.171313053574371	-0.171313053574371
-0.144888571837904	-0.144888571837904	-0.144888571837904	-0.144888571837904	-0.144888571837904	-0.144888571837904
-0.0607709408552391	-0.0607709408552391	-0.0607709408552391	-0.0607709408552391	-0.0607709408552391	-0.0607709408552391
0.0906061908222853	0.0906061908222853	0.0906061908222853	0.0906061908222853	0.0906061908222853	0.0906061908222853
0.310767827759267	0.310767827759267	0.310767827759267	0.310767827759267	0.310767827759267	0.310767827759267
0.575650192871129	0.575650192871129	0.575650192871129	0.575650192871129	0.575650192871129	0.575650192871129
0.836040808293502	0.836040808293502	0.836040808293502	0.836040808293502	0.836040808293502	0.836040808293502
1.03302744991171	1.03302744991171	1.03302744991171	1.03302744991171	1.03302744991171	1.03302744991171
1.10144367552764	1.10144367552764	1.10144367552764	1.10144367552764	1.10144367552764	1.10144367552764
1.01708325157569	1.01708325157569	1.01708325157569	1.01708325157569	1.01708325157569	1.01708325157569
0.806616229110469	0.806616229110469	0.806616229110469	0.806616229110469	0.806616229110469	0.806616229110469
0.522120022585304	0.522120022585304	0.522120022585304	0.522120022585304	0.522120022585304	0.522120022585304
0.23537654890237	0.23537654890237	0.23537654890237	0.23537654890237	0.23537654890237	0.23537654890237
-0.00385112428196926	-0.00385112428196926	-0.00385112428196926	-0.00385112428196926	-0.00385112428196926	-0.00385112428196926
-0.170604118650123	-0.170604118650123	-0.170604118650123	-0.170604118650123	-0.170604118650123	-0.170604118650123
-0.259067349898793	-0.259067349898793	-0.259067349898793	-0.259067349898793	-0.259067349898793	-0.259067349898793
-0.278386996684133	-0.278386996684133	-0.278386996684133	-0.278386996684133	-0.278386996684133	-0.278386996684133
-0.249084819988643	-0.249084819988643	-0.249084819988643	-0.249084819988643	-0.249084819988643	-0.249084819988643
-0.193168217528425	-0.193168217528425	-0.193168217528425	-0.193168217528425	-0.193168217528425	-0.193168217528425
-0.131154637226621	-0.131154637226621	-0.131154637226621	-0.131154637226621	-0.131154637226621	-0.131154637226621
-0.0795883934897541	-0.0795883934897541	-0.0795883934897541	-0.0795883934897541	-0.0795883934897541	-0.0795883934897541
-0.0424157955830809	-0.0424157955830809	-0.0424157955830809	-0.0424157955830809	-0.0424157955830809	-0.0424157955830809
-0.0183547434821701	-0.0183547434821701	-0.0183547434821701	-0.0183547434821701	-0.0183547434821701	-0.0183547434821701
-0.00362082209447412	-0.00362082209447412	-0.00362082209447412	-0.00362082209447412	-0.00362082209447412	-0.00362082209447412
0.00699015370901057	0.00699015370901057	0.00699015370901057	0.00699015370901057	0.00699015370901057	0.00699015370901057
0.0161934637925372	0.0161934637925372	0.0161934637925372	0.0161934637925372	0.0161934637925372	0.0161934637925372
0.0256376295733185	0.0256376295733185	0.0256376295733185	0.0256376295733185	0.0256376295733185	0.0256376295733185
0.0362172789551332	0.0362172789551332	0.0362172789551332	0.0362172789551332	0.0362172789551332	0.0362172789551332
0.0481570449427734	0.0481570449427734	0.0481570449427734	0.0481570449427734	0.0481570449427734	0.0481570449427734
0.0615966709362849	0.0615966709362849	0.0615966709362849	0.0615966709362849	0.0615966709362849	0.0615966709362849
0.0765961962937279	0.0765961962937279	0.0765961962937279	0.0765961962937279	0.0765961962937279	0.0765961962937279
0.0931578764208954	0.0931578764208954	0.0931578764208954	0.0931578764208954	0.0931578764208954	0.0931578764208954
0.111235833938234	0.111235833938234	0.111235833938234	0.111235833938234	0.111235833938234	0.111235833938234
0.130748750053796	0.130748750053796	0.130748750053796	0.130748750053796	0.130748750053796	0.130748750053796
0.151556232871804	0.151556232871804	0.151556232871804	0.151556232871804	0.151556232871804	0.151556232871804
0.173432363658407	0.173432363658407	0.173432363658407	0.173432363658407	0.173432363658407	0.173432363658407
0.196114716604807	0.196114716604807	0.196114716604807	0.196114716604807	0.196114716604807	0.196114716604807
0.21930548449114	0.21930548449114	0.21930548449114	0.21930548449114	0.21930548449114	0.21930548449114
0.242671478686485	0.242671478686485	0.242671478686485	0.242671478686485	0.242671478686485	0.242671478686485
0.265844129148859	0.265844129148859	0.265844129148859	0.265844129148859	0.265844129148859	0.265844129148859
0.288419484425218	0.288419484425218	0.288419484425218	0.288419484425218	0.288419484425218	0.288419484425218
0.309958211651456	0.309958211651456	0.309958211651456	0.309958211651456	0.309958211651456	0.309958211651456
0.329985596552408	0.329985596552408	0.329985596552408	0.329985596552408	0.329985596552408	0.329985596552408
0.348054327250213	0.348054327250213	0.348054327250213	0.348054327250213	0.348054327250213	0.348054327250213
0.363808494467641	0.363808494467641	0.363808494467641	0.363808494467641	0.363808494467641	0.363808494467641
0.376812350402054	0.376812350402054	0.376812350402054	0.376812350402054	0.376812350402054	0.376812350402054
0.38671009704473	0.38671009704473	0.38671009704473	0.38671009704473	0.38671009704473	0.38671009704473
0.393233641645204	0.393233641645204	0.393233641645204	0.393233641645204	0.393233641645204	0.393233641645204
0.396202596711271	0.396202596711271	0.396202596711271	0.396202596711271	0.396202596711271	0.396202596711271
0.395524280008981	0.395524280008981	0.395524280008981	0.395524280008981	0.395524280008981	0.395524280008981
0.391193714562647	0.391193714562647	0.391193714562647	0.391193714562647	0.391193714562647	0.391193714562647
0.383293628654836	0.383293628654836	0.383293628654836	0.383293628654836	0.383293628654836	0.383293628654836
0.371994455826375	0.371994455826375	0.371994455826375	0.371994455826375	0.371994455826375	0.371994455826375
0.357554334876351	0.357554334876351	0.357554334876351	0.357554334876351	0.357554334876351	0.357554334876351
0.340224718780901	0.340224718780901	0.340224718780901	0.340224718780901	0.340224718780901	0.340224718780901
0.320359516604561	0.320359516604561	0.320359516604561	0.320359516604561	0.320359516604561	0.320359516604561
0.298432803741643	0.298432803741643	0.298432803741643	0.298432803741643	0.298432803741643	0.298432803741643
0.2749024391611	0.2749024391611	0.2749024391611	0.2749024391611	0.2749024391611	0.2749024391611
0.250210046194331	0.250210046194331	0.250210046194331	0.250210046194331	0.250210046194331	0.250210046194331
0.224781012535175	0.224781012535175	0.224781012535175	0.224781012535175	0.224781012535175	0.224781012535175
0.19902449023992	0.19902449023992	0.19902449023992	0.19902449023992	0.19902449023992	0.19902449023992
0.173333395727294	0.173333395727294	0.173333395727294	0.173333395727294	0.173333395727294	0.173333395727294
0.148084409778471	0.148084409778471	0.148084409778471	0.148084409778471	0.148084409778471	0.148084409778471
0.123637977537068	0.123637977537068	0.123637977537068	0.123637977537068	0.123637977537068	0.123637977537068
0.100317757305064	0.100317757305064	0.100317757305064	0.100317757305064	0.100317757305064	0.100317757305064
0.0783219918783072	0.0783219918783072	0.0783219918783072	0.0783219918783072	0.0783219918783072	0.0783219918783072
0.0578168549586433	0.0578168549586433	0.0578168549586433	0.0578168549586433	0.0578168549586433	0.0578168549586433
0.038919601882724	0.038919601882724	0.038919601882724	0.038919601882724	0.038919601882724	0.038919601882724
0.0216966514226219	0.0216966514226219	0.0216966514226219	0.0216966514226219	0.0216966514226219	0.0216966514226219
0.00616871128691793	0.00616871128691793	0.00616871128691793	0.00616871128691793	0.00616871128691793	0.00616871128691793
-0.00578498284847623	-0.00578498284847623	-0.00578498284847623	-0.00578498284847623	-0.00578498284847623	-0.00578498284847623
-0.00592360995676006	-0.00592360995676006	-0.00592360995676006	-0.00592360995676006	-0.00592360995676006	-0.00592360995676006
-0.00620414000044633	-0.00620414000044633	-0.00620414000044633	-0.00620414000044633	-0.00620414000044633	-0.00620414000044633
-0.00647699420632025	-0.00647699420632025	-0.00647699420632025	-0.00647699420632025	-0.00647699420632025	-0.00647699420632025
-0.00673747834878269	-0.00673747834878269	-0.00673747834878269	-0.00673747834878269	-0.00673747834878269	-0.00673747834878269
-0.00696879339254841	-0.00696879339254841	-0.00696879339254841	-0.00696879339254841	-0.00696879339254841	-0.00696879339254841
-0.00717228484959564	-0.00717228484959564	-0.00717228484959564	-0.00717228484959564	-0.00717228484959564	-0.00717228484959564
-0.00734143674810134	-0.00734143674810134	-0.00734143674810134	-0.00734143674810134	-0.00734143674810134	-0.00734143674810134
-0.00745055931452326	-0.00745055931452326	-0.00745055931452326	-0.00745055931452326	-0.00745055931452326	-0.00745055931452326
-0.00745478897359858	-0.00745478897359858	-0.00745478897359858	-0.00745478897359858	-0.00745478897359858	-0.00745478897359858
-0.00729008834834521	-0.00729008834834521	-0.00729008834834521	-0.00729008834834521	-0.00729008834834521	-0.00729008834834521
-0.00687324626006058	-0.00687324626006058	-0.00687324626006058	-0.00687324626006058	-0.00687324626006058	-0.00687324626006058
-0.0061018777283226	-0.0061018777283226	-0.0061018777283226	-0.0061018777283226	-0.0061018777283226	-0.0061018777283226
-0.00486676356340859	-0.00486676356340859	-0.00486676356340859	-0.00486676356340859	-0.00486676356340859	-0.00486676356340859
-0.00300298673169425	-0.00300298673169425	-0.00300298673169425	-0.00300298673169425	-0.00300298673169425	-0.00300298673169425
-0.000225867776115607	-0.000225867776115607	-0.000225867776115607	-0.000225867776115607	-0.000225867776115607	-0.000225867776115607
0.00374720499953635	0.00374720499953635	0.00374720499953635	0.00374720499953635	0.00374720499953635	0.00374720499953635
0.00918978750166732	0.00918978750166732	0.00918978750166732	0.00918978750166732	0.00918978750166732	0.00918978750166732
0.0163663798468794	0.0163663798468794	0.0163663798468794	0.0163663798468794	0.0163663798468794	0.0163663798468794
0.0255324263619711	0.0255324263619711	0.0255324263619711	0.0255324263619711	0.0255324263619711	0.0255324263619711
0.0369343155839371	0.0369343155839371	0.0369343155839371	0.0369343155839371	0.0369343155839371	0.0369343155839371
0.0508093416326613	0.0508093416326613	0.0508093416326613	0.0508093416326613	0.0508093416326613	0.0508093416326613
0.0673035082728328	0.0673035082728328	0.0673035082728328	0.0673035082728328	0.0673035082728328	0.0673035082728328
0.0862479300328846	0.0862479300328846	0.0862479300328846	0.0862479300328846	0.0862479300328846	0.0862479300328846
0.107279704848112	0.107279704848112	0.107279704848112	0.107279704848112	0.107279704848112	0.107279704848112
0.12987978945879	0.12987978945879	0.12987978945879	0.12987978945879	0.12987978945879	0.12987978945879
0.153372999410175	0.153372999410175	0.153372999410175	0.153372999410175	0.153372999410175	0.153372999410175
0.176928009052506	0.176928009052506	0.176928009052506	0.176928009052506	0.176928009052506	0.176928009052506
0.199557351540999	0.199557351540999	0.199557351540999	0.199557351540999	0.199557351540999	0.199557351540999
0.220117418835854	0.220117418835854	0.220117418835854	0.220117418835854	0.220117418835854	0.220117418835854
0.237321788558227	0.237321788558227	0.237321788558227	0.237321788558227	0.237321788558227	0.237321788558227
0.250173373037663	0.250173373037663	0.250173373037663	0.250173373037663	0.250173373037663	0.250173373037663
0.257920407209228	0.257920407209228	0.257920407209228	0.257920407209228	0.257920407209228	0.257920407209228
0.2600451872318	0.2600451872318	0.2600451872318	0.2600451872318	0.2600451872318	0.2600451872318
0.256361188416804	0.256361188416804	0.256361188416804	0.256361188416804	0.256361188416804	0.256361188416804
0.24701306522822	0.24701306522822	0.24701306522822	0.24701306522822	0.24701306522822	0.24701306522822
0.232476651282577	0.232476651282577	0.232476651282577	0.232476651282577	0.232476651282577	0.232476651282577
0.213558959348957	0.213558959348957	0.213558959348957	0.213558959348957	0.213558959348957	0.213558959348957
0.191359232411364	0.191359232411364	0.191359232411364	0.191359232411364	0.191359232411364	0.191359232411364
0.16690533900668	0.16690533900668	0.16690533900668	0.16690533900668	0.16690533900668	0.16690533900668
0.141478648572697	0.141478648572697	0.141478648572697	0.141478648572697	0.141478648572697	0.141478648572697
0.11621699181494	0.11621699181494	0.11621699181494	0.11621699181494	0.11621699181494	0.11621699181494
0.0920030273894878	0.0920030273894878	0.0920030273894878	0.0920030273894878	0.0920030273894878	0.0920030273894878
0.0694642419029743	0.0694642419029743	0.0694642419029743	0.0694642419029743	0.0694642419029743	0.0694642419029743
0.048972949912587	0.048972949912587	0.048972949912587	0.048972949912587	0.048972949912587	0.048972949912587
0.0306462939260676	0.0306462939260676	0.0306462939260676	0.0306462939260676	0.0306462939260676	0.0306462939260676
0.0142753314014339	0.0142753314014339	0.0142753314014339	0.0142753314014339	0.0142753314014339	0.0142753314014339
-0.00179463303338995	-0.00179463303338995	-0.00179463303338995	-0.00179463303338995	-0.00179463303338995	-0.00179463303338995
-0.0201234102374382	-0.0201234102374382	-0.0201234102374382	-0.0201234102374382	-0.0201234102374382	-0.0201234102374382
-0.0434131920304243	-0.0434131920304243	-0.0434131920304243	-0.0434131920304243	-0.0434131920304243	-0.0434131920304243
-0.0745010025466057	-0.0745010025466057	-0.0745010025466057	-0.0745010025466057	-0.0745010025466057	-0.0745010025466057
-0.114145250068539	-0.114145250068539	-0.114145250068539	-0.114145250068539	-0.114145250068539	-0.114145250068539
-0.155468204971122	-0.155468204971122	-0.155468204971122	-0.155468204971122	-0.155468204971122	-0.155468204971122
-0.186706096968925	-0.186706096968925	-0.186706096968925	-0.186706096968925	-0.186706096968925	-0.186706096968925
-0.191998059514651	-0.191998059514651	-0.191998059514651	-0.191998059514651	-0.191998059514651	-0.191998059514651
-0.152270910831974	-0.152270910831974	-0.152270910831974	-0.152270910831974	-0.152270910831974	-0.152270910831974
-0.0510385987851045	-0.0510385987851045	-0.0510385987851045	-0.0510385987851045	-0.0510385987851045	-0.0510385987851045
0.121677040448399	0.121677040448399	0.121677040448399	0.121677040448399	0.121677040448399	0.121677040448399
0.357611569287382	0.357611569287382	0.357611569287382	0.357611569287382	0.357611569287382	0.357611569287382
0.629193509118451	0.629193509118451	0.629193509118451	0.629193509118451	0.629193509118451	0.629193509118451
0.879987732149937	0.879987732149937	0.879987732149937	0.879987732149937	0.879987732149937	0.879987732149937
1.04001946089403	1.04001946089403	1.04001946089403	1.04001946089403	1.04001946089403	1.04001946089403
1.06190542456104	1.06190542456104	1.06190542456104	1.06190542456104	1.06190542456104	1.06190542456104
0.930484775378329	0.930484775378329	0.930484775378329	0.930484775378329	0.930484775378329	0.930484775378329
0.688956256456604	0.688956256456604	0.688956256456604	0.688956256456604	0.688956256456604	0.688956256456604
0.398713822441459	0.398713822441459	0.398713822441459	0.398713822441459	0.398713822441459	0.398713822441459
0.122975321478221	0.122975321478221	0.122975321478221	0.122975321478221	0.122975321478221	0.122975321478221
-0.094167292689	-0.094167292689	-0.094167292689	-0.094167292689	-0.094167292689	-0.094167292689
-0.236045954394811	-0.236045954394811	-0.236045954394811	-0.236045954394811	-0.236045954394811	-0.236045954394811
-0.301174402770779	-0.301174402770779	-0.301174402770779	-0.301174402770779	-0.301174402770779	-0.301174402770779
-0.302270214180557	-0.302270214180557	-0.302270214180557	-0.302270214180557	-0.302270214180557	-0.302270214180557
-0.260579052661517	-0.260579052661517	-0.260579052661517	-0.260579052661517	-0.260579052661517	-0.260579052661517
-0.200586963793707	-0.200586963793707	-0.200586963793707	-0.200586963793707	-0.200586963793707	-0.200586963793707
-0.140893183530829	-0.140893183530829	-0.140893183530829	-0.140893183530829	-0.140893183530829	-0.140893183530829
-0.093223477339564	-0.093223477339564	-0.093223477339564	-0.093223477339564	-0.093223477339564	-0.093223477339564
-0.0610331812148033	-0.0610331812148033	-0.0610331812148033	-0.0610331812148033	-0.0610331812148033	-0.0610331812148033
-0.0402010447559102	-0.0402010447559102	-0.0402010447559102	-0.0402010447559102	-0.0402010447559102	-0.0402010447559102
-0.0264426482036279	-0.0264426482036279	-0.0264426482036279	-0.0264426482036279	-0.0264426482036279	-0.0264426482036279
-0.0162353123782124	-0.0162353123782124	-0.0162353123782124	-0.0162353123782124	-0.0162353123782124	-0.0162353123782124
-0.00682585581928941	-0.00682585581928941	-0.00682585581928941	-0.00682585581928941	-0.00682585581928941	-0.00682585581928941
0.00329625674260797	0.00329625674260797	0.00329625674260797	0.00329625674260797	0.00329625674260797	0.00329625674260797
0.0145532362034143	0.0145532362034143	0.0145532362034143	0.0145532362034143	0.0145532362034143	0.0145532362034143
0.0272103053348296	0.0272103053348296	0.0272103053348296	0.0272103053348296	0.0272103053348296	0.0272103053348296
0.0414209077413633	0.0414209077413633	0.0414209077413633	0.0414209077413633	0.0414209077413633	0.0414209077413633
0.0572267078603343	0.0572267078603343	0.0572267078603343	0.0572267078603343	0.0572267078603343	0.0572267078603343
0.0745735071802048	0.0745735071802048	0.0745735071802048	0.0745735071802048	0.0745735071802048	0.0745735071802048
0.0934072072907662	0.0934072072907662	0.0934072072907662	0.0934072072907662	0.0934072072907662	0.0934072072907662
0.11362443195284	0.11362443195284	0.11362443195284	0.11362443195284	0.11362443195284	0.11362443195284
0.135065970797516	0.135065970797516	0.135065970797516	0.135065970797516	0.135065970797516	0.135065970797516
0.157519569934765	0.157519569934765	0.157519569934765	0.157519569934765	0.157519569934765	0.157519569934765
0.180719931953435	0.180719931953435	0.180719931953435	0.180719931953435	0.180719931953435	0.180719931953435
0.204348715921256	0.204348715921256	0.204348715921256	0.204348715921256	0.204348715921256	0.204348715921256
0.228041171602769	0.228041171602769	0.228041171602769	0.228041171602769	0.228041171602769	0.228041171602769
0.251452478154083	0.251452478154083	0.251452478154083	0.251452478154083	0.251452478154083	0.251452478154083
0.274100227987223	0.274100227987223	0.274100227987223	0.274100227987223	0.274100227987223	0.274100227987223
0.295493874428118	0.295493874428118	0.295493874428118	0.295493874428118	0.295493874428118	0.295493874428118
0.31518184466906	0.31518184466906	0.31518184466906	0.31518184466906	0.31518184466906	0.31518184466906
0.332751539768697	0.332751539768697	0.332751539768697	0.332751539768697	0.332751539768697	0.332751539768697
0.347829334652042	0.347829334652042	0.347829334652042	0.347829334652042	0.347829334652042	0.347829334652042
0.360080578110464	0.360080578110464	0.360080578110464	0.360080578110464	0.360080578110464	0.360080578110464
0.369209592801695	0.369209592801695	0.369209592801695	0.369209592801695	0.369209592801695	0.369209592801695
0.374959675249827	0.374959675249827	0.374959675249827	0.374959675249827	0.374959675249827	0.374959675249827
0.377118018754726	0.377118018754726	0.377118018754726	0.377118018754726	0.377118018754726	0.377118018754726
0.375612197957015	0.375612197957015	0.375612197957015	0.375612197957015	0.375612197957015	0.375612197957015
0.370502881613787	0.370502881613787	0.370502881613787	0.370502881613787	0.370502881613787	0.370502881613787
0.361909936507135	0.361909936507135	0.361909936507135	0.361909936507135	0.361909936507135	0.361909936507135
0.350010590617298	0.350010590617298	0.350010590617298	0.350010590617298	0.350010590617298	0.350010590617298
0.335039433122671	0.335039433122671	0.335039433122671	0.335039433122671	0.335039433122671	0.335039433122671
0.317288414399798	0.317288414399798	0.317288414399798	0.317288414399798	0.317288414399798	0.317288414399798
0.297106846023371	0.297106846023371	0.297106846023371	0.297106846023371	0.297106846023371	0.297106846023371
0.274901400766238	0.274901400766238	0.274901400766238	0.274901400766238	0.274901400766238	0.274901400766238
0.251136112599394	0.251136112599394	0.251136112599394	0.251136112599394	0.251136112599394	0.251136112599394
0.226332376691986	0.226332376691986	0.226332376691986	0.226332376691986	0.226332376691986	0.226332376691986
0.200983803040215	0.200983803040215	0.200983803040215	0.200983803040215	0.200983803040215	0.200983803040215
0.175440355941972	0.175440355941972	0.175440355941972	0.175440355941972	0.175440355941972	0.175440355941972
0.150125528366753	0.150125528366753	0.150125528366753	0.150125528366753	0.150125528366753	0.150125528366753
0.125413015796448	0.125413015796448	0.125413015796448	0.125413015796448	0.125413015796448	0.125413015796448
0.101621489177021	0.101621489177021	0.101621489177021	0.101621489177021	0.101621489177021	0.101621489177021
0.0790145949185068	0.0790145949185068	0.0790145949185068	0.0790145949185068	0.0790145949185068	0.0790145949185068
0.057800954895015	0.057800954895015	0.057800954895015	0.057800954895015	0.057800954895015	0.057800954895015
0.0381341664447278	0.0381341664447278	0.0381341664447278	0.0381341664447278	0.0381341664447278	0.0381341664447278
0.0201128023698997	0.0201128023698997	0.0201128023698997	0.0201128023698997	0.0201128023698997	0.0201128023698997
0.00378041093685871	0.00378041093685871	0.00378041093685871	0.00378041093685871	0.00378041093685871	0.00378041093685871
-0.0108744841239951	-0.0108744841239951	-0.0108744841239951	-0.0108744841239951	-0.0108744841239951	-0.0108744841239951
-0.0151543159096704	-0.0151543159096704	-0.0151543159096704	-0.0151543159096704	-0.0151543159096704	-0.0151543159096704
-0.0148503335572322	-0.0148503335572322	-0.0148503335572322	-0.0148503335572322	-0.0148503335572322	-0.0148503335572322
-0.0148247954907396	-0.0148247954907396	-0.0148247954907396	-0.0148247954907396	-0.0148247954907396	-0.0148247954907396
-0.0147895932848838	-0.0147895932848838	-0.0147895932848838	-0.0147895932848838	-0.0147895932848838	-0.0147895932848838
-0.0147276240792236	-0.0147276240792236	-0.0147276240792236	-0.0147276240792236	-0.0147276240792236	-0.0147276240792236
-0.0146434256390226	-0.0146434256390226	-0.0146434256390226	-0.0146434256390226	-0.0146434256390226	-0.0146434256390226
-0.0145375346701684	-0.0145375346701684	-0.0145375346701684	-0.0145375346701684	-0.0145375346701684	-0.0145375346701684
-0.0143928032385833	-0.0143928032385833	-0.0143928032385833	-0.0143928032385833	-0.0143928032385833	-0.0143928032385833
-0.0141743987702239	-0.0141743987702239	-0.0141743987702239	-0.0141743987702239	-0.0141743987702239	-0.0141743987702239
-0.0138298040510819	-0.0138298040510819	-0.0138298040510819	-0.0138298040510819	-0.0138298040510819	-0.0138298040510819
-0.0132888172271834	-0.0132888172271834	-0.0132888172271834	-0.0132888172271834	-0.0132888172271834	-0.0132888172271834
-0.0124635518045894	-0.0124635518045894	-0.0124635518045894	-0.0124635518045894	-0.0124635518045894	-0.0124635518045894
-0.0112484542847295	-0.0112484542847295	-0.0112484542847295	-0.0112484542847295	-0.0112484542847295	-0.0112484542847295
-0.00957483121540642	-0.00957483121540642	-0.00957483121540642	-0.00957483121540642	-0.00957483121540642	-0.00957483121540642
-0.00721133460562917	-0.00721133460562917	-0.00721133460562917	-0.00721133460562917	-0.00721133460562917	-0.00721133460562917
-0.00382405254023077	-0.00382405254023077	-0.00382405254023077	-0.00382405254023077	-0.00382405254023077	-0.00382405254023077
0.000892441622586004	0.000892441622586004	0.000892441622586004	0.000892441622586004	0.000892441622586004	0.000892441622586004
0.00721508925124809	0.00721508925124809	0.00721508925124809	0.00721508925124809	0.00721508925124809	0.00721508925124809
0.0153923464408149	0.0153923464408149	0.0153923464408149	0.0153923464408149	0.0153923464408149	0.0153923464408149
0.0256441840129741	0.0256441840129741	0.0256441840129741	0.0256441840129741	0.0256441840129741	0.0256441840129741
0.0381620875160447	0.0381620875160447	0.0381620875160447	0.0381620875160447	0.0381620875160447	0.0381620875160447
0.0531090572249757	0.0531090572249757	0.0531090572249757	0.0531090572249757	0.0531090572249757	0.0531090572249757
0.0706359823273185	0.0706359823273185	0.0706359823273185	0.0706359823273185	0.0706359823273185	0.0706359823273185
0.0909859483972874	0.0909859483972874	0.0909859483972874	0.0909859483972874	0.0909859483972874	0.0909859483972874
0.113473110521471	0.113473110521471	0.113473110521471	0.113473110521471	0.113473110521471	0.113473110521471
0.137145705374967	0.137145705374967	0.137145705374967	0.137145705374967	0.137145705374967	0.137145705374967
0.161067462628258	0.161067462628258	0.161067462628258	0.161067462628258	0.161067462628258	0.161067462628258
0.184317604947209	0.184317604947209	0.184317604947209	0.184317604947209	0.184317604947209	0.184317604947209
0.205990847993067	0.205990847993067	0.205990847993067	0.205990847993067	0.205990847993067	0.205990847993067
0.225197400422463	0.225197400422463	0.225197400422463	0.225197400422463	0.225197400422463	0.225197400422463
0.24106296388741	0.24106296388741	0.24106296388741	0.24106296388741	0.24106296388741	0.24106296388741
0.252728733035305	0.252728733035305	0.252728733035305	0.252728733035305	0.252728733035305	0.252728733035305
0.259351395508927	0.259351395508927	0.259351395508927	0.259351395508927	0.259351395508927	0.259351395508927
0.260101139764867	0.260101139764867	0.260101139764867	0.260101139764867	0.260101139764867	0.260101139764867
0.254429089728084	0.254429089728084	0.254429089728084	0.254429089728084	0.254429089728084	0.254429089728084
0.243092890842001	0.243092890842001	0.243092890842001	0.243092890842001	0.243092890842001	0.243092890842001
0.227142503208602	0.227142503208602	0.227142503208602	0.227142503208602	0.227142503208602	0.227142503208602
0.20759052959395	0.20759052959395	0.20759052959395	0.20759052959395	0.20759052959395	0.20759052959395
0.185412215428185	0.185412215428185	0.185412215428185	0.185412215428185	0.185412215428185	0.185412215428185
0.161545448805528	0.161545448805528	0.161545448805528	0.161545448805528	0.161545448805528	0.161545448805528
0.136890760484278	0.136890760484278	0.136890760484278	0.136890760484278	0.136890760484278	0.136890760484278
0.112311323886815	0.112311323886815	0.112311323886815	0.112311323886815	0.112311323886815	0.112311323886815
0.0886329550995966	0.0886329550995966	0.0886329550995966	0.0886329550995966	0.0886329550995966	0.0886329550995966
0.0666441128731597	0.0666441128731597	0.0666441128731597	0.0666441128731597	0.0666441128731597	0.0666441128731597
0.0470656581181555	0.0470656581181555	0.0470656581181555	0.0470656581181555	0.0470656581181555	0.0470656581181555
0.0297843931566204	0.0297843931566204	0.0297843931566204	0.0297843931566204	0.0297843931566204	0.0297843931566204
0.013870713729926	0.013870713729926	0.013870713729926	0.013870713729926	0.013870713729926	0.013870713729926
-0.00233006810583081	-0.00233006810583081	-0.00233006810583081	-0.00233006810583081	-0.00233006810583081	-0.00233006810583081
-0.0213093849168832	-0.0213093849168832	-0.0213093849168832	-0.0213093849168832	-0.0213093849168832	-0.0213093849168832
-0.0463867801518041	-0.0463867801518041	-0.0463867801518041	-0.0463867801518041	-0.0463867801518041	-0.0463867801518041
-0.0800608904698306	-0.0800608904698306	-0.0800608904698306	-0.0800608904698306	-0.0800608904698306	-0.0800608904698306
-0.120596728446295	-0.120596728446295	-0.120596728446295	-0.120596728446295	-0.120596728446295	-0.120596728446295
-0.160434349737649	-0.160434349737649	-0.160434349737649	-0.160434349737649	-0.160434349737649	-0.160434349737649
-0.185725985775259	-0.185725985775259	-0.185725985775259	-0.185725985775259	-0.185725985775259	-0.185725985775259
-0.178625404664257	-0.178625404664257	-0.178625404664257	-0.178625404664257	-0.178625404664257	-0.178625404664257
-0.11965061649031	-0.11965061649031	-0.11965061649031	-0.11965061649031	-0.11965061649031	-0.11965061649031
0.00442046194992729	0.00442046194992729	0.00442046194992729	0.00442046194992729	0.00442046194992729	0.00442046194992729
0.197682726119039	0.197682726119039	0.197682726119039	0.197682726119039	0.197682726119039	0.197682726119039
0.452021931559211	0.452021931559211	0.452021931559211	0.452021931559211	0.452021931559211	0.452021931559211
0.721680818145909	0.721680818145909	0.721680818145909	0.721680818145909	0.721680818145909	0.721680818145909
0.948287777477708	0.948287777477708	0.948287777477708	0.948287777477708	0.948287777477708	0.948287777477708
1.07263743315854	1.07263743315854	1.07263743315854	1.07263743315854	1.07263743315854	1.07263743315854
1.04397606309683	1.04397606309683	1.04397606309683	1.04397606309683	1.04397606309683	1.04397606309683
0.875285493802118	0.875285493802118	0.875285493802118	0.875285493802118	0.875285493802118	0.875285493802118
0.614448750403593	0.614448750403593	0.614448750403593	0.614448750403593	0.614448750403593	0.614448750403593
0.321087216256099	0.321087216256099	0.321087216256099	0.321087216256099	0.321087216256099	0.321087216256099
0.0593907693250913	0.0593907693250913	0.0593907693250913	0.0593907693250913	0.0593907693250913	0.0593907693250913
-0.13782383504975	-0.13782383504975	-0.13782383504975	-0.13782383504975	-0.13782383504975	-0.13782383504975
-0.258248699725371	-0.258248699725371	-0.258248699725371	-0.258248699725371	-0.258248699725371	-0.258248699725371
-0.304508164395298	-0.304508164395298	-0.304508164395298	-0.304508164395298	-0.304508164395298	-0.304508164395298
-0.292002725109679	-0.292002725109679	-0.292002725109679	-0.292002725109679	-0.292002725109679	-0.292002725109679
-0.243484531529457	-0.243484531529457	-0.243484531529457	-0.243484531529457	-0.243484531529457	-0.243484531529457
-0.181809053838137	-0.181809053838137	-0.181809053838137	-0.181809053838137	-0.181809053838137	-0.181809053838137
-0.12368882966363	-0.12368882966363	-0.12368882966363	-0.12368882966363	-0.12368882966363	-0.12368882966363
-0.0794152027140568	-0.0794152027140568	-0.0794152027140568	-0.0794152027140568	-0.0794152027140568	-0.0794152027140568
-0.0496866248074395	-0.0496866248074395	-0.0496866248074395	-0.0496866248074395	-0.0496866248074395	-0.0496866248074395
-0.0302701398663691	-0.0302701398663691	-0.0302701398663691	-0.0302701398663691	-0.0302701398663691	-0.0302701398663691
-0.0172531294175952	-0.0172531294175952	-0.0172531294175952	-0.0172531294175952	-0.0172531294175952	-0.0172531294175952
-0.00717286099641362	-0.00717286099641362	-0.00717286099641362	-0.00717286099641362	-0.00717286099641362	-0.00717286099641362
0.00269431526909764	0.00269431526909764	0.00269431526909764	0.00269431526909764	0.00269431526909764	0.00269431526909764
0.0133017135519881	0.0133017135519881	0.0133017135519881	0.0133017135519881	0.0133017135519881	0.0133017135519881
0.0250888951917884	0.0250888951917884	0.0250888951917884	0.0250888951917884	0.0250888951917884	0.0250888951917884
0.0383356007423181	0.0383356007423181	0.0383356007423181	0.0383356007423181	0.0383356007423181	0.0383356007423181
0.053155424619295	0.053155424619295	0.053155424619295	0.053155424619295	0.053155424619295	0.053155424619295
0.0695186200137474	0.0695186200137474	0.0695186200137474	0.0695186200137474	0.0695186200137474	0.0695186200137474
0.0874090371378751	0.0874090371378751	0.0874090371378751	0.0874090371378751	0.0874090371378751	0.0874090371378751
0.106769632139309	0.106769632139309	0.106769632139309	0.106769632139309	0.106769632139309	0.106769632139309
0.127486604726441	0.127486604726441	0.127486604726441	0.127486604726441	0.127486604726441	0.127486604726441
0.149393400081448	0.149393400081448	0.149393400081448	0.149393400081448	0.149393400081448	0.149393400081448
0.17227070886033	0.17227070886033	0.17227070886033	0.17227070886033	0.17227070886033	0.17227070886033
0.195846469945685	0.195846469945685	0.195846469945685	0.195846469945685	0.195846469945685	0.195846469945685
0.219844294797472	0.219844294797472	0.219844294797472	0.219844294797472	0.219844294797472	0.219844294797472
0.243883244022307	0.243883244022307	0.243883244022307	0.243883244022307	0.243883244022307	0.243883244022307
0.26750866956851	0.26750866956851	0.26750866956851	0.26750866956851	0.26750866956851	0.26750866956851
0.290280943369083	0.290280943369083	0.290280943369083	0.290280943369083	0.290280943369083	0.290280943369083
0.311775457341747	0.311775457341747	0.311775457341747	0.311775457341747	0.311775457341747	0.311775457341747
0.33158262338891	0.33158262338891	0.33158262338891	0.33158262338891	0.33158262338891	0.33158262338891
0.349307873397695	0.349307873397695	0.349307873397695	0.349307873397695	0.349307873397695	0.349307873397695
0.364571659239914	0.364571659239914	0.364571659239914	0.364571659239914	0.364571659239914	0.364571659239914
0.377009452772094	0.377009452772094	0.377009452772094	0.377009452772094	0.377009452772094	0.377009452772094
0.386276404698175	0.386276404698175	0.386276404698175	0.386276404698175	0.386276404698175	0.386276404698175
0.392144703234479	0.392144703234479	0.392144703234479	0.392144703234479	0.392144703234479	0.392144703234479
0.394481810770272	0.394481810770272	0.394481810770272	0.394481810770272	0.394481810770272	0.394481810770272
0.39322125486029	0.39322125486029	0.39322125486029	0.39322125486029	0.39322125486029	0.39322125486029
0.388373076238133	0.388373076238133	0.388373076238133	0.388373076238133	0.388373076238133	0.388373076238133
0.380023828816263	0.380023828816263	0.380023828816263	0.380023828816263	0.380023828816263	0.380023828816263
0.368336579686011	0.368336579686011	0.368336579686011	0.368336579686011	0.368336579686011	0.368336579686011
0.353550909117561	0.353550909117561	0.353550909117561	0.353550909117561	0.353550909117561	0.353550909117561
0.335982910559976	0.335982910559976	0.335982910559976	0.335982910559976	0.335982910559976	0.335982910559976
0.316025190641167	0.316025190641167	0.316025190641167	0.316025190641167	0.316025190641167	0.316025190641167
0.294146868612665	0.294146868612665	0.294146868612665	0.294146868612665	0.294146868612665	0.294146868612665
0.270766248106892	0.270766248106892	0.270766248106892	0.270766248106892	0.270766248106892	0.270766248106892
0.24629959274625	0.24629959274625	0.24629959274625	0.24629959274625	0.24629959274625	0.24629959274625
0.221233845125959	0.221233845125959	0.221233845125959	0.221233845125959	0.221233845125959	0.221233845125959
0.196009315698959	0.196009315698959	0.196009315698959	0.196009315698959	0.196009315698959	0.196009315698959
0.171019682775868	0.171019682775868	0.171019682775868	0.171019682775868	0.171019682775868	0.171019682775868
0.146611992525025	0.146611992525025	0.146611992525025	0.146611992525025	0.146611992525025	0.146611992525025
0.123086658972446	0.123086658972446	0.123086658972446	0.123086658972446	0.123086658972446	0.123086658972446
0.100697464001868	0.100697464001868	0.100697464001868	0.100697464001868	0.100697464001868	0.100697464001868
0.0796515573547057	0.0796515573547057	0.0796515573547057	0.0796515573547057	0.0796515573547057	0.0796515573547057
0.0601094566300934	0.0601094566300934	0.0601094566300934	0.0601094566300934	0.0601094566300934	0.0601094566300934
0.0421831258389029	0.0421831258389029	0.0421831258389029	0.0421831258389029	0.0421831258389029	0.0421831258389029
0.0259280104276405	0.0259280104276405	0.0259280104276405	0.0259280104276405	0.0259280104276405	0.0259280104276405
0.0113549916485611	0.0113549916485611	0.0113549916485611	0.0113549916485611	0.0113549916485611	0.0113549916485611
0.00433486310527592	0.00433486310527592	0.00433486310527592	0.00433486310527592	0.00433486310527592	0.00433486310527592
0.00464072422496153	0.00464072422496153	0.00464072422496153	0.00464072422496153	0.00464072422496153	0.00464072422496153
0.00495177432061789	0.00495177432061789	0.00495177432061789	0.00495177432061789	0.00495177432061789	0.00495177432061789
0.00527739454399234	0.00527739454399234	0.00527739454399234	0.00527739454399234	0.00527739454399234	0.00527739454399234
0.00561422982727439	0.00561422982727439	0.00561422982727439	0.00561422982727439	0.00561422982727439	0.00561422982727439
0.00596226999895288	0.00596226999895288	0.00596226999895288	0.00596226999895288	0.00596226999895288	0.00596226999895288
0.00633256249702135	0.00633256249702135	0.00633256249702135	0.00633256249702135	0.00633256249702135	0.00633256249702135
0.00674721236897863	0.00674721236897863	0.00674721236897863	0.00674721236897863	0.00674721236897863	0.00674721236897863
0.00723938227182841	0.00723938227182841	0.00723938227182841	0.00723938227182841	0.00723938227182841	0.00723938227182841
0.00785329247207944	0.00785329247207944	0.00785329247207944	0.00785329247207944	0.00785329247207944	0.00785329247207944
0.0086442208457454	0.0086442208457454	0.0086442208457454	0.0086442208457454	0.0086442208457454	0.0086442208457454
