1.06095102397402	1.06095102397402	1.06095102397402	1.06095102397402	1.06095102397402	1.06095102397402
1.12469383274362	1.12469383274362	1.12469383274362	1.12469383274362	1.12469383274362	1.12469383274362
0.86512182424603	0.86512182424603	0.86512182424603	0.86512182424603	0.86512182424603	0.86512182424603
0.67164160485506	0.67164160485506	0.67164160485506	0.67164160485506	0.67164160485506	0.67164160485506
0.49189658553538	0.49189658553538	0.49189658553538	0.49189658553538	0.49189658553538	0.49189658553538
0.300186918966054	0.300186918966054	0.300186918966054	0.300186918966054	0.300186918966054	0.300186918966054
0.0321680459230455	0.0321680459230455	0.0321680459230455	0.0321680459230455	0.0321680459230455	0.0321680459230455
-0.150283557208829	-0.150283557208829	-0.150283557208829	-0.150283557208829	-0.150283557208829	-0.150283557208829
-0.280076076080812	-0.280076076080812	-0.280076076080812	-0.280076076080812	-0.280076076080812	-0.280076076080812
-0.200051220870669	-0.200051220870669	-0.200051220870669	-0.200051220870669	-0.200051220870669	-0.200051220870669
-0.252988059375863	-0.252988059375863	-0.252988059375863	-0.252988059375863	-0.252988059375863	-0.252988059375863
-0.268470596258592	-0.268470596258592	-0.268470596258592	-0.268470596258592	-0.268470596258592	-0.268470596258592
-0.300238015999825	-0.300238015999825	-0.300238015999825	-0.300238015999825	-0.300238015999825	-0.300238015999825
-0.227444076996277	-0.227444076996277	-0.227444076996277	-0.227444076996277	-0.227444076996277	-0.227444076996277
-0.168440632357951	-0.168440632357951	-0.168440632357951	-0.168440632357951	-0.168440632357951	-0.168440632357951
-0.128315497875965	-0.128315497875965	-0.128315497875965	-0.128315497875965	-0.128315497875965	-0.128315497875965
-0.230024644801796	-0.230024644801796	-0.230024644801796	-0.230024644801796	-0.230024644801796	-0.230024644801796
-0.0890170074089825	-0.0890170074089825	-0.0890170074089825	-0.0890170074089825	-0.0890170074089825	-0.0890170074089825
-0.0252015972756844	-0.0252015972756844	-0.0252015972756844	-0.0252015972756844	-0.0252015972756844	-0.0252015972756844
-0.157867436143094	-0.157867436143094	-0.157867436143094	-0.157867436143094	-0.157867436143094	-0.157867436143094
-0.0530891328860107	-0.0530891328860107	-0.0530891328860107	-0.0530891328860107	-0.0530891328860107	-0.0530891328860107
-0.0522669175787808	-0.0522669175787808	-0.0522669175787808	-0.0522669175787808	-0.0522669175787808	-0.0522669175787808
-0.104995467804235	-0.104995467804235	-0.104995467804235	-0.104995467804235	-0.104995467804235	-0.104995467804235
-0.058192663864065	-0.058192663864065	-0.058192663864065	-0.058192663864065	-0.058192663864065	-0.058192663864065
-0.104279396584157	-0.104279396584157	-0.104279396584157	-0.104279396584157	-0.104279396584157	-0.104279396584157
0.00169784763188725	0.00169784763188725	0.00169784763188725	0.00169784763188725	0.00169784763188725	0.00169784763188725
-0.0360335080920959	-0.0360335080920959	-0.0360335080920959	-0.0360335080920959	-0.0360335080920959	-0.0360335080920959
-0.115522234420715	-0.115522234420715	-0.115522234420715	-0.115522234420715	-0.115522234420715	-0.115522234420715
-0.111101823411032	-0.111101823411032	-0.111101823411032	-0.111101823411032	-0.111101823411032	-0.111101823411032
0.00964419389332127	0.00964419389332127	0.00964419389332127	0.00964419389332127	0.00964419389332127	0.00964419389332127
-0.0076287460490089	-0.0076287460490089	-0.0076287460490089	-0.0076287460490089	-0.0076287460490089	-0.0076287460490089
-0.00524282775705806	-0.00524282775705806	-0.00524282775705806	-0.00524282775705806	-0.00524282775705806	-0.00524282775705806
-0.0977314184170314	-0.0977314184170314	-0.0977314184170314	-0.0977314184170314	-0.0977314184170314	-0.0977314184170314
-0.116648357923774	-0.116648357923774	-0.116648357923774	-0.116648357923774	-0.116648357923774	-0.116648357923774
0.0811108984012034	0.0811108984012034	0.0811108984012034	0.0811108984012034	0.0811108984012034	0.0811108984012034
-0.0167095287558016	-0.0167095287558016	-0.0167095287558016	-0.0167095287558016	-0.0167095287558016	-0.0167095287558016
0.0999171335714402	0.0999171335714402	0.0999171335714402	0.0999171335714402	0.0999171335714402	0.0999171335714402
-0.0421793304040749	-0.0421793304040749	-0.0421793304040749	-0.0421793304040749	-0.0421793304040749	-0.0421793304040749
-0.0603113506081912	-0.0603113506081912	-0.0603113506081912	-0.0603113506081912	-0.0603113506081912	-0.0603113506081912
0.0218552298006921	0.0218552298006921	0.0218552298006921	0.0218552298006921	0.0218552298006921	0.0218552298006921
0.134364863402339	0.134364863402339	0.134364863402339	0.134364863402339	0.134364863402339	0.134364863402339
-0.000100293291566037	-0.000100293291566037	-0.000100293291566037	-0.000100293291566037	-0.000100293291566037	-0.000100293291566037
0.0621362017739373	0.0621362017739373	0.0621362017739373	0.0621362017739373	0.0621362017739373	0.0621362017739373
0.0152692403551294	0.0152692403551294	0.0152692403551294	0.0152692403551294	0.0152692403551294	0.0152692403551294
0.128553687176544	0.128553687176544	0.128553687176544	0.128553687176544	0.128553687176544	0.128553687176544
0.114312171093238	0.114312171093238	0.114312171093238	0.114312171093238	0.114312171093238	0.114312171093238
0.0412327040678208	0.0412327040678208	0.0412327040678208	0.0412327040678208	0.0412327040678208	0.0412327040678208
0.135681250452198	0.135681250452198	0.135681250452198	0.135681250452198	0.135681250452198	0.135681250452198
0.211315155664082	0.211315155664082	0.211315155664082	0.211315155664082	0.211315155664082	0.211315155664082
0.214191510629971	0.214191510629971	0.214191510629971	0.214191510629971	0.214191510629971	0.214191510629971
0.192453736074395	0.192453736074395	0.192453736074395	0.192453736074395	0.192453736074395	0.192453736074395
0.166514956724698	0.166514956724698	0.166514956724698	0.166514956724698	0.166514956724698	0.166514956724698
0.318649583856527	0.318649583856527	0.318649583856527	0.318649583856527	0.318649583856527	0.318649583856527
0.154367833994047	0.154367833994047	0.154367833994047	0.154367833994047	0.154367833994047	0.154367833994047
0.243733326380889	0.243733326380889	0.243733326380889	0.243733326380889	0.243733326380889	0.243733326380889
0.206636172470404	0.206636172470404	0.206636172470404	0.206636172470404	0.206636172470404	0.206636172470404
0.204485171463998	0.204485171463998	0.204485171463998	0.204485171463998	0.204485171463998	0.204485171463998
0.318230578027705	0.318230578027705	0.318230578027705	0.318230578027705	0.318230578027705	0.318230578027705
0.262619100527503	0.262619100527503	0.262619100527503	0.262619100527503	0.262619100527503	0.262619100527503
0.38939140057179	0.38939140057179	0.38939140057179	0.38939140057179	0.38939140057179	0.38939140057179
0.314289813217824	0.314289813217824	0.314289813217824	0.314289813217824	0.314289813217824	0.314289813217824
0.392122334528437	0.392122334528437	0.392122334528437	0.392122334528437	0.392122334528437	0.392122334528437
0.460801552185135	0.460801552185135	0.460801552185135	0.460801552185135	0.460801552185135	0.460801552185135
0.366101559036833	0.366101559036833	0.366101559036833	0.366101559036833	0.366101559036833	0.366101559036833
0.436298671441277	0.436298671441277	0.436298671441277	0.436298671441277	0.436298671441277	0.436298671441277
0.429810875192719	0.429810875192719	0.429810875192719	0.429810875192719	0.429810875192719	0.429810875192719
0.448390483479849	0.448390483479849	0.448390483479849	0.448390483479849	0.448390483479849	0.448390483479849
0.333040693114016	0.333040693114016	0.333040693114016	0.333040693114016	0.333040693114016	0.333040693114016
0.388881377600174	0.388881377600174	0.388881377600174	0.388881377600174	0.388881377600174	0.388881377600174
0.318826651974559	0.318826651974559	0.318826651974559	0.318826651974559	0.318826651974559	0.318826651974559
0.429024777848138	0.429024777848138	0.429024777848138	0.429024777848138	0.429024777848138	0.429024777848138
0.430049682678008	0.430049682678008	0.430049682678008	0.430049682678008	0.430049682678008	0.430049682678008
0.452650636338886	0.452650636338886	0.452650636338886	0.452650636338886	0.452650636338886	0.452650636338886
0.35402243615631	0.35402243615631	0.35402243615631	0.35402243615631	0.35402243615631	0.35402243615631
0.326171503249537	0.326171503249537	0.326171503249537	0.326171503249537	0.326171503249537	0.326171503249537
0.308708704330631	0.308708704330631	0.308708704330631	0.308708704330631	0.308708704330631	0.308708704330631
0.277475697818346	0.277475697818346	0.277475697818346	0.277475697818346	0.277475697818346	0.277475697818346
0.309185676222191	0.309185676222191	0.309185676222191	0.309185676222191	0.309185676222191	0.309185676222191
0.230851818973959	0.230851818973959	0.230851818973959	0.230851818973959	0.230851818973959	0.230851818973959
0.257352280162443	0.257352280162443	0.257352280162443	0.257352280162443	0.257352280162443	0.257352280162443
0.273614703622105	0.273614703622105	0.273614703622105	0.273614703622105	0.273614703622105	0.273614703622105
0.181871223907955	0.181871223907955	0.181871223907955	0.181871223907955	0.181871223907955	0.181871223907955
0.151433475286518	0.151433475286518	0.151433475286518	0.151433475286518	0.151433475286518	0.151433475286518
0.223947242222699	0.223947242222699	0.223947242222699	0.223947242222699	0.223947242222699	0.223947242222699
0.224297713753244	0.224297713753244	0.224297713753244	0.224297713753244	0.224297713753244	0.224297713753244
0.229659225730046	0.229659225730046	0.229659225730046	0.229659225730046	0.229659225730046	0.229659225730046
0.093924241824724	0.093924241824724	0.093924241824724	0.093924241824724	0.093924241824724	0.093924241824724
0.209246215649825	0.209246215649825	0.209246215649825	0.209246215649825	0.209246215649825	0.209246215649825
0.212085843070475	0.212085843070475	0.212085843070475	0.212085843070475	0.212085843070475	0.212085843070475
0.212701691310562	0.212701691310562	0.212701691310562	0.212701691310562	0.212701691310562	0.212701691310562
0.068532768155338	0.068532768155338	0.068532768155338	0.068532768155338	0.068532768155338	0.068532768155338
0.0820279180160988	0.0820279180160988	0.0820279180160988	0.0820279180160988	0.0820279180160988	0.0820279180160988
0.0208146268246569	0.0208146268246569	0.0208146268246569	0.0208146268246569	0.0208146268246569	0.0208146268246569
0.0143999699215208	0.0143999699215208	0.0143999699215208	0.0143999699215208	0.0143999699215208	0.0143999699215208
0.0784009483788676	0.0784009483788676	0.0784009483788676	0.0784009483788676	0.0784009483788676	0.0784009483788676
-0.0198708037941171	-0.0198708037941171	-0.0198708037941171	-0.0198708037941171	-0.0198708037941171	-0.0198708037941171
0.0963733193389316	0.0963733193389316	0.0963733193389316	0.0963733193389316	0.0963733193389316	0.0963733193389316
-0.0573289349195989	-0.0573289349195989	-0.0573289349195989	-0.0573289349195989	-0.0573289349195989	-0.0573289349195989
0.0169646437888517	0.0169646437888517	0.0169646437888517	0.0169646437888517	0.0169646437888517	0.0169646437888517
-0.055346017393754	-0.055346017393754	-0.055346017393754	-0.055346017393754	-0.055346017393754	-0.055346017393754
0.0209334778392192	0.0209334778392192	0.0209334778392192	0.0209334778392192	0.0209334778392192	0.0209334778392192
0.0433846655463309	0.0433846655463309	0.0433846655463309	0.0433846655463309	0.0433846655463309	0.0433846655463309
-0.108800759468459	-0.108800759468459	-0.108800759468459	-0.108800759468459	-0.108800759468459	-0.108800759468459
0.0505510039191533	0.0505510039191533	0.0505510039191533	0.0505510039191533	0.0505510039191533	0.0505510039191533
0.0309427692089831	0.0309427692089831	0.0309427692089831	0.0309427692089831	0.0309427692089831	0.0309427692089831
-0.0790064869165452	-0.0790064869165452	-0.0790064869165452	-0.0790064869165452	-0.0790064869165452	-0.0790064869165452
-0.0935724730901166	-0.0935724730901166	-0.0935724730901166	-0.0935724730901166	-0.0935724730901166	-0.0935724730901166
0.0347356267001032	0.0347356267001032	0.0347356267001032	0.0347356267001032	0.0347356267001032	0.0347356267001032
0.0121488354746757	0.0121488354746757	0.0121488354746757	0.0121488354746757	0.0121488354746757	0.0121488354746757
-0.115209437588985	-0.115209437588985	-0.115209437588985	-0.115209437588985	-0.115209437588985	-0.115209437588985
-0.0131837303670327	-0.0131837303670327	-0.0131837303670327	-0.0131837303670327	-0.0131837303670327	-0.0131837303670327
-0.100388655567977	-0.100388655567977	-0.100388655567977	-0.100388655567977	-0.100388655567977	-0.100388655567977
0.0272975401545987	0.0272975401545987	0.0272975401545987	0.0272975401545987	0.0272975401545987	0.0272975401545987
0.00892406008789709	0.00892406008789709	0.00892406008789709	0.00892406008789709	0.00892406008789709	0.00892406008789709
0.00616117414889433	0.00616117414889433	0.00616117414889433	0.00616117414889433	0.00616117414889433	0.00616117414889433
-0.0864000624498679	-0.0864000624498679	-0.0864000624498679	-0.0864000624498679	-0.0864000624498679	-0.0864000624498679
-0.0880253236724062	-0.0880253236724062	-0.0880253236724062	-0.0880253236724062	-0.0880253236724062	-0.0880253236724062
0.042639368471089	0.042639368471089	0.042639368471089	0.042639368471089	0.042639368471089	0.042639368471089
-0.0959692628009779	-0.0959692628009779	-0.0959692628009779	-0.0959692628009779	-0.0959692628009779	-0.0959692628009779
-0.0888039271565542	-0.0888039271565542	-0.0888039271565542	-0.0888039271565542	-0.0888039271565542	-0.0888039271565542
-0.127199188137509	-0.127199188137509	-0.127199188137509	-0.127199188137509	-0.127199188137509	-0.127199188137509
-0.0870974848348397	-0.0870974848348397	-0.0870974848348397	-0.0870974848348397	-0.0870974848348397	-0.0870974848348397
0.0188723033270704	0.0188723033270704	0.0188723033270704	0.0188723033270704	0.0188723033270704	0.0188723033270704
0.029663068387539	0.029663068387539	0.029663068387539	0.029663068387539	0.029663068387539	0.029663068387539
-0.116516830266446	-0.116516830266446	-0.116516830266446	-0.116516830266446	-0.116516830266446	-0.116516830266446
-0.0163046019152383	-0.0163046019152383	-0.0163046019152383	-0.0163046019152383	-0.0163046019152383	-0.0163046019152383
-0.015435812958419	-0.015435812958419	-0.015435812958419	-0.015435812958419	-0.015435812958419	-0.015435812958419
-0.0846399218027652	-0.0846399218027652	-0.0846399218027652	-0.0846399218027652	-0.0846399218027652	-0.0846399218027652
-0.00518198252716013	-0.00518198252716013	-0.00518198252716013	-0.00518198252716013	-0.00518198252716013	-0.00518198252716013
-0.043611686726708	-0.043611686726708	-0.043611686726708	-0.043611686726708	-0.043611686726708	-0.043611686726708
-0.0330283703639016	-0.0330283703639016	-0.0330283703639016	-0.0330283703639016	-0.0330283703639016	-0.0330283703639016
-0.0701593217591311	-0.0701593217591311	-0.0701593217591311	-0.0701593217591311	-0.0701593217591311	-0.0701593217591311
-0.13207507858582	-0.13207507858582	-0.13207507858582	-0.13207507858582	-0.13207507858582	-0.13207507858582
-0.0911716084784844	-0.0911716084784844	-0.0911716084784844	-0.0911716084784844	-0.0911716084784844	-0.0911716084784844
-0.0591495137958762	-0.0591495137958762	-0.0591495137958762	-0.0591495137958762	-0.0591495137958762	-0.0591495137958762
-0.0800214514482574	-0.0800214514482574	-0.0800214514482574	-0.0800214514482574	-0.0800214514482574	-0.0800214514482574
-0.120013360709424	-0.120013360709424	-0.120013360709424	-0.120013360709424	-0.120013360709424	-0.120013360709424
0.0259741031567871	0.0259741031567871	0.0259741031567871	0.0259741031567871	0.0259741031567871	0.0259741031567871
-0.024415668708425	-0.024415668708425	-0.024415668708425	-0.024415668708425	-0.024415668708425	-0.024415668708425
-0.0535994403529929	-0.0535994403529929	-0.0535994403529929	-0.0535994403529929	-0.0535994403529929	-0.0535994403529929
-0.0805122370414911	-0.0805122370414911	-0.0805122370414911	-0.0805122370414911	-0.0805122370414911	-0.0805122370414911
-0.0473478280442588	-0.0473478280442588	-0.0473478280442588	-0.0473478280442588	-0.0473478280442588	-0.0473478280442588
0.0243134305936815	0.0243134305936815	0.0243134305936815	0.0243134305936815	0.0243134305936815	0.0243134305936815
0.00308919281670106	0.00308919281670106	0.00308919281670106	0.00308919281670106	0.00308919281670106	0.00308919281670106
0.069999998614674	0.069999998614674	0.069999998614674	0.069999998614674	0.069999998614674	0.069999998614674
-0.00370835999018236	-0.00370835999018236	-0.00370835999018236	-0.00370835999018236	-0.00370835999018236	-0.00370835999018236
-0.000259660296973784	-0.000259660296973784	-0.000259660296973784	-0.000259660296973784	-0.000259660296973784	-0.000259660296973784
-0.0103225052165528	-0.0103225052165528	-0.0103225052165528	-0.0103225052165528	-0.0103225052165528	-0.0103225052165528
0.0627211795322716	0.0627211795322716	0.0627211795322716	0.0627211795322716	0.0627211795322716	0.0627211795322716
-0.0672366565480853	-0.0672366565480853	-0.0672366565480853	-0.0672366565480853	-0.0672366565480853	-0.0672366565480853
0.0330777933793999	0.0330777933793999	0.0330777933793999	0.0330777933793999	0.0330777933793999	0.0330777933793999
-0.0513267322223036	-0.0513267322223036	-0.0513267322223036	-0.0513267322223036	-0.0513267322223036	-0.0513267322223036
0.0330961438014549	0.0330961438014549	0.0330961438014549	0.0330961438014549	0.0330961438014549	0.0330961438014549
-0.0354986596581305	-0.0354986596581305	-0.0354986596581305	-0.0354986596581305	-0.0354986596581305	-0.0354986596581305
-0.00221793761175388	-0.00221793761175388	-0.00221793761175388	-0.00221793761175388	-0.00221793761175388	-0.00221793761175388
0.00346682626323454	0.00346682626323454	0.00346682626323454	0.00346682626323454	0.00346682626323454	0.00346682626323454
-0.0691666554617881	-0.0691666554617881	-0.0691666554617881	-0.0691666554617881	-0.0691666554617881	-0.0691666554617881
-0.000179999390186304	-0.000179999390186304	-0.000179999390186304	-0.000179999390186304	-0.000179999390186304	-0.000179999390186304
-0.0765812103747088	-0.0765812103747088	-0.0765812103747088	-0.0765812103747088	-0.0765812103747088	-0.0765812103747088
-0.0189412441124349	-0.0189412441124349	-0.0189412441124349	-0.0189412441124349	-0.0189412441124349	-0.0189412441124349
-0.0460628987475102	-0.0460628987475102	-0.0460628987475102	-0.0460628987475102	-0.0460628987475102	-0.0460628987475102
0.0779642046392201	0.0779642046392201	0.0779642046392201	0.0779642046392201	0.0779642046392201	0.0779642046392201
0.0790907063943405	0.0790907063943405	0.0790907063943405	0.0790907063943405	0.0790907063943405	0.0790907063943405
-0.109751528670782	-0.109751528670782	-0.109751528670782	-0.109751528670782	-0.109751528670782	-0.109751528670782
0.0274540879254115	0.0274540879254115	0.0274540879254115	0.0274540879254115	0.0274540879254115	0.0274540879254115
0.0382771588302161	0.0382771588302161	0.0382771588302161	0.0382771588302161	0.0382771588302161	0.0382771588302161
0.0902228414003685	0.0902228414003685	0.0902228414003685	0.0902228414003685	0.0902228414003685	0.0902228414003685
-0.107381091160583	-0.107381091160583	-0.107381091160583	-0.107381091160583	-0.107381091160583	-0.107381091160583
-0.0559734748695669	-0.0559734748695669	-0.0559734748695669	-0.0559734748695669	-0.0559734748695669	-0.0559734748695669
-0.0949187777953067	-0.0949187777953067	-0.0949187777953067	-0.0949187777953067	-0.0949187777953067	-0.0949187777953067
0.0552526522255139	0.0552526522255139	0.0552526522255139	0.0552526522255139	0.0552526522255139	0.0552526522255139
0.0378262133312146	0.0378262133312146	0.0378262133312146	0.0378262133312146	0.0378262133312146	0.0378262133312146
-0.0731513150399329	-0.0731513150399329	-0.0731513150399329	-0.0731513150399329	-0.0731513150399329	-0.0731513150399329
0.00840233824499009	0.00840233824499009	0.00840233824499009	0.00840233824499009	0.00840233824499009	0.00840233824499009
0.0993628904649341	0.0993628904649341	0.0993628904649341	0.0993628904649341	0.0993628904649341	0.0993628904649341
0.0391605092304234	0.0391605092304234	0.0391605092304234	0.0391605092304234	0.0391605092304234	0.0391605092304234
0.11502946178126	0.11502946178126	0.11502946178126	0.11502946178126	0.11502946178126	0.11502946178126
0.118598153379117	0.118598153379117	0.118598153379117	0.118598153379117	0.118598153379117	0.118598153379117
0.0994996626788578	0.0994996626788578	0.0994996626788578	0.0994996626788578	0.0994996626788578	0.0994996626788578
0.0858243273317621	0.0858243273317621	0.0858243273317621	0.0858243273317621	0.0858243273317621	0.0858243273317621
0.156727896384185	0.156727896384185	0.156727896384185	0.156727896384185	0.156727896384185	0.156727896384185
-0.0213788300923682	-0.0213788300923682	-0.0213788300923682	-0.0213788300923682	-0.0213788300923682	-0.0213788300923682
0.150371765276276	0.150371765276276	0.150371765276276	0.150371765276276	0.150371765276276	0.150371765276276
0.102126208936764	0.102126208936764	0.102126208936764	0.102126208936764	0.102126208936764	0.102126208936764
0.0605333343085206	0.0605333343085206	0.0605333343085206	0.0605333343085206	0.0605333343085206	0.0605333343085206
0.219352866533976	0.219352866533976	0.219352866533976	0.219352866533976	0.219352866533976	0.219352866533976
0.163992231188831	0.163992231188831	0.163992231188831	0.163992231188831	0.163992231188831	0.163992231188831
0.153095923273268	0.153095923273268	0.153095923273268	0.153095923273268	0.153095923273268	0.153095923273268
0.217811195792568	0.217811195792568	0.217811195792568	0.217811195792568	0.217811195792568	0.217811195792568
0.16815089401085	0.16815089401085	0.16815089401085	0.16815089401085	0.16815089401085	0.16815089401085
0.122897773648565	0.122897773648565	0.122897773648565	0.122897773648565	0.122897773648565	0.122897773648565
0.160604190500267	0.160604190500267	0.160604190500267	0.160604190500267	0.160604190500267	0.160604190500267
0.271591726129124	0.271591726129124	0.271591726129124	0.271591726129124	0.271591726129124	0.271591726129124
0.213871558095738	0.213871558095738	0.213871558095738	0.213871558095738	0.213871558095738	0.213871558095738
0.271513849392209	0.271513849392209	0.271513849392209	0.271513849392209	0.271513849392209	0.271513849392209
0.361672562359541	0.361672562359541	0.361672562359541	0.361672562359541	0.361672562359541	0.361672562359541
0.221717968898054	0.221717968898054	0.221717968898054	0.221717968898054	0.221717968898054	0.221717968898054
0.377096746736369	0.377096746736369	0.377096746736369	0.377096746736369	0.377096746736369	0.377096746736369
0.234829093112819	0.234829093112819	0.234829093112819	0.234829093112819	0.234829093112819	0.234829093112819
0.205143773209882	0.205143773209882	0.205143773209882	0.205143773209882	0.205143773209882	0.205143773209882
0.232062671652339	0.232062671652339	0.232062671652339	0.232062671652339	0.232062671652339	0.232062671652339
0.294207107802557	0.294207107802557	0.294207107802557	0.294207107802557	0.294207107802557	0.294207107802557
0.352152035665777	0.352152035665777	0.352152035665777	0.352152035665777	0.352152035665777	0.352152035665777
0.311665561828007	0.311665561828007	0.311665561828007	0.311665561828007	0.311665561828007	0.311665561828007
0.217722824504702	0.217722824504702	0.217722824504702	0.217722824504702	0.217722824504702	0.217722824504702
0.281418298341791	0.281418298341791	0.281418298341791	0.281418298341791	0.281418298341791	0.281418298341791
0.151859239612746	0.151859239612746	0.151859239612746	0.151859239612746	0.151859239612746	0.151859239612746
0.123368436083047	0.123368436083047	0.123368436083047	0.123368436083047	0.123368436083047	0.123368436083047
0.231722105012669	0.231722105012669	0.231722105012669	0.231722105012669	0.231722105012669	0.231722105012669
0.0579238080731575	0.0579238080731575	0.0579238080731575	0.0579238080731575	0.0579238080731575	0.0579238080731575
0.172143690710712	0.172143690710712	0.172143690710712	0.172143690710712	0.172143690710712	0.172143690710712
0.153860157916426	0.153860157916426	0.153860157916426	0.153860157916426	0.153860157916426	0.153860157916426
0.00085297323221642	0.00085297323221642	0.00085297323221642	0.00085297323221642	0.00085297323221642	0.00085297323221642
0.0498825809446744	0.0498825809446744	0.0498825809446744	0.0498825809446744	0.0498825809446744	0.0498825809446744
0.0250379905180698	0.0250379905180698	0.0250379905180698	0.0250379905180698	0.0250379905180698	0.0250379905180698
0.12291311319007	0.12291311319007	0.12291311319007	0.12291311319007	0.12291311319007	0.12291311319007
0.0963450972670698	0.0963450972670698	0.0963450972670698	0.0963450972670698	0.0963450972670698	0.0963450972670698
0.11828577524221	0.11828577524221	0.11828577524221	0.11828577524221	0.11828577524221	0.11828577524221
0.0866705084975353	0.0866705084975353	0.0866705084975353	0.0866705084975353	0.0866705084975353	0.0866705084975353
0.118929352994183	0.118929352994183	0.118929352994183	0.118929352994183	0.118929352994183	0.118929352994183
-0.0615146306619014	-0.0615146306619014	-0.0615146306619014	-0.0615146306619014	-0.0615146306619014	-0.0615146306619014
0.00866482688835934	0.00866482688835934	0.00866482688835934	0.00866482688835934	0.00866482688835934	0.00866482688835934
0.00482483336738593	0.00482483336738593	0.00482483336738593	0.00482483336738593	0.00482483336738593	0.00482483336738593
0.0233744374699895	0.0233744374699895	0.0233744374699895	0.0233744374699895	0.0233744374699895	0.0233744374699895
0.0657543417708174	0.0657543417708174	0.0657543417708174	0.0657543417708174	0.0657543417708174	0.0657543417708174
-0.0538890774895892	-0.0538890774895892	-0.0538890774895892	-0.0538890774895892	-0.0538890774895892	-0.0538890774895892
-0.0815358749003924	-0.0815358749003924	-0.0815358749003924	-0.0815358749003924	-0.0815358749003924	-0.0815358749003924
0.0623817927468897	0.0623817927468897	0.0623817927468897	0.0623817927468897	0.0623817927468897	0.0623817927468897
0.0495783693014881	0.0495783693014881	0.0495783693014881	0.0495783693014881	0.0495783693014881	0.0495783693014881
-0.0761255514280313	-0.0761255514280313	-0.0761255514280313	-0.0761255514280313	-0.0761255514280313	-0.0761255514280313
-0.0778058275409768	-0.0778058275409768	-0.0778058275409768	-0.0778058275409768	-0.0778058275409768	-0.0778058275409768
-0.123430410011291	-0.123430410011291	-0.123430410011291	-0.123430410011291	-0.123430410011291	-0.123430410011291
-0.150632622472032	-0.150632622472032	-0.150632622472032	-0.150632622472032	-0.150632622472032	-0.150632622472032
-0.138258193689197	-0.138258193689197	-0.138258193689197	-0.138258193689197	-0.138258193689197	-0.138258193689197
-0.0581180786471088	-0.0581180786471088	-0.0581180786471088	-0.0581180786471088	-0.0581180786471088	-0.0581180786471088
-0.201838492404059	-0.201838492404059	-0.201838492404059	-0.201838492404059	-0.201838492404059	-0.201838492404059
-0.0495870492631198	-0.0495870492631198	-0.0495870492631198	-0.0495870492631198	-0.0495870492631198	-0.0495870492631198
-0.103210593396249	-0.103210593396249	-0.103210593396249	-0.103210593396249	-0.103210593396249	-0.103210593396249
0.0292505518393897	0.0292505518393897	0.0292505518393897	0.0292505518393897	0.0292505518393897	0.0292505518393897
0.313307633226147	0.313307633226147	0.313307633226147	0.313307633226147	0.313307633226147	0.313307633226147
0.400923403903522	0.400923403903522	0.400923403903522	0.400923403903522	0.400923403903522	0.400923403903522
0.741389405434328	0.741389405434328	0.741389405434328	0.741389405434328	0.741389405434328	0.741389405434328
0.758580621758805	0.758580621758805	0.758580621758805	0.758580621758805	0.758580621758805	0.758580621758805
0.912957082908565	0.912957082908565	0.912957082908565	0.912957082908565	0.912957082908565	0.912957082908565
1.07911755961094	1.07911755961094	1.07911755961094	1.07911755961094	1.07911755961094	1.07911755961094
1.05981516865183	1.05981516865183	1.05981516865183	1.05981516865183	1.05981516865183	1.05981516865183
1.04232108176545	1.04232108176545	1.04232108176545	1.04232108176545	1.04232108176545	1.04232108176545
1.05131740135051	1.05131740135051	1.05131740135051	1.05131740135051	1.05131740135051	1.05131740135051
0.751064004813808	0.751064004813808	0.751064004813808	0.751064004813808	0.751064004813808	0.751064004813808
0.588380100174977	0.588380100174977	0.588380100174977	0.588380100174977	0.588380100174977	0.588380100174977
0.353315570479245	0.353315570479245	0.353315570479245	0.353315570479245	0.353315570479245	0.353315570479245
0.270726005741163	0.270726005741163	0.270726005741163	0.270726005741163	0.270726005741163	0.270726005741163
0.0514625061726695	0.0514625061726695	0.0514625061726695	0.0514625061726695	0.0514625061726695	0.0514625061726695
-0.0136892420288741	-0.0136892420288741	-0.0136892420288741	-0.0136892420288741	-0.0136892420288741	-0.0136892420288741
-0.266677472368565	-0.266677472368565	-0.266677472368565	-0.266677472368565	-0.266677472368565	-0.266677472368565
-0.288000319485643	-0.288000319485643	-0.288000319485643	-0.288000319485643	-0.288000319485643	-0.288000319485643
-0.341207451416841	-0.341207451416841	-0.341207451416841	-0.341207451416841	-0.341207451416841	-0.341207451416841
-0.205651747118871	-0.205651747118871	-0.205651747118871	-0.205651747118871	-0.205651747118871	-0.205651747118871
-0.202607016851476	-0.202607016851476	-0.202607016851476	-0.202607016851476	-0.202607016851476	-0.202607016851476
-0.229896704913904	-0.229896704913904	-0.229896704913904	-0.229896704913904	-0.229896704913904	-0.229896704913904
-0.230677602360446	-0.230677602360446	-0.230677602360446	-0.230677602360446	-0.230677602360446	-0.230677602360446
-0.160451594636725	-0.160451594636725	-0.160451594636725	-0.160451594636725	-0.160451594636725	-0.160451594636725
-4.27172407098525e-05	-4.27172407098525e-05	-4.27172407098525e-05	-4.27172407098525e-05	-4.27172407098525e-05	-4.27172407098525e-05
-0.0935988611514567	-0.0935988611514567	-0.0935988611514567	-0.0935988611514567	-0.0935988611514567	-0.0935988611514567
-0.0818120980296117	-0.0818120980296117	-0.0818120980296117	-0.0818120980296117	-0.0818120980296117	-0.0818120980296117
-0.0722561164211879	-0.0722561164211879	-0.0722561164211879	-0.0722561164211879	-0.0722561164211879	-0.0722561164211879
0.0226028786690449	0.0226028786690449	0.0226028786690449	0.0226028786690449	0.0226028786690449	0.0226028786690449
0.0552181928753563	0.0552181928753563	0.0552181928753563	0.0552181928753563	0.0552181928753563	0.0552181928753563
-0.0695748840324392	-0.0695748840324392	-0.0695748840324392	-0.0695748840324392	-0.0695748840324392	-0.0695748840324392
0.0864855870091169	0.0864855870091169	0.0864855870091169	0.0864855870091169	0.0864855870091169	0.0864855870091169
0.0210250661338776	0.0210250661338776	0.0210250661338776	0.0210250661338776	0.0210250661338776	0.0210250661338776
0.00596576898488408	0.00596576898488408	0.00596576898488408	0.00596576898488408	0.00596576898488408	0.00596576898488408
-0.0559165130641855	-0.0559165130641855	-0.0559165130641855	-0.0559165130641855	-0.0559165130641855	-0.0559165130641855
0.00996828678607319	0.00996828678607319	0.00996828678607319	0.00996828678607319	0.00996828678607319	0.00996828678607319
0.0245009601976237	0.0245009601976237	0.0245009601976237	0.0245009601976237	0.0245009601976237	0.0245009601976237
0.105467165138001	0.105467165138001	0.105467165138001	0.105467165138001	0.105467165138001	0.105467165138001
0.00583746831763647	0.00583746831763647	0.00583746831763647	0.00583746831763647	0.00583746831763647	0.00583746831763647
-0.0350267281434435	-0.0350267281434435	-0.0350267281434435	-0.0350267281434435	-0.0350267281434435	-0.0350267281434435
0.107881277287116	0.107881277287116	0.107881277287116	0.107881277287116	0.107881277287116	0.107881277287116
0.0237191036944778	0.0237191036944778	0.0237191036944778	0.0237191036944778	0.0237191036944778	0.0237191036944778
-0.00010226275723825	-0.00010226275723825	-0.00010226275723825	-0.00010226275723825	-0.00010226275723825	-0.00010226275723825
0.0957843517074152	0.0957843517074152	0.0957843517074152	0.0957843517074152	0.0957843517074152	0.0957843517074152
0.0684441614345544	0.0684441614345544	0.0684441614345544	0.0684441614345544	0.0684441614345544	0.0684441614345544
0.193068171890451	0.193068171890451	0.193068171890451	0.193068171890451	0.193068171890451	0.193068171890451
0.101304785716961	0.101304785716961	0.101304785716961	0.101304785716961	0.101304785716961	0.101304785716961
0.0542838832715873	0.0542838832715873	0.0542838832715873	0.0542838832715873	0.0542838832715873	0.0542838832715873
0.124708969484292	0.124708969484292	0.124708969484292	0.124708969484292	0.124708969484292	0.124708969484292
0.183718614905241	0.183718614905241	0.183718614905241	0.183718614905241	0.183718614905241	0.183718614905241
0.185959193879765	0.185959193879765	0.185959193879765	0.185959193879765	0.185959193879765	0.185959193879765
0.250736636415162	0.250736636415162	0.250736636415162	0.250736636415162	0.250736636415162	0.250736636415162
0.247682211264625	0.247682211264625	0.247682211264625	0.247682211264625	0.247682211264625	0.247682211264625
0.257451810592721	0.257451810592721	0.257451810592721	0.257451810592721	0.257451810592721	0.257451810592721
0.236870261202477	0.236870261202477	0.236870261202477	0.236870261202477	0.236870261202477	0.236870261202477
0.321926951280255	0.321926951280255	0.321926951280255	0.321926951280255	0.321926951280255	0.321926951280255
0.24033631184576	0.24033631184576	0.24033631184576	0.24033631184576	0.24033631184576	0.24033631184576
0.310669633142714	0.310669633142714	0.310669633142714	0.310669633142714	0.310669633142714	0.310669633142714
0.32298863842776	0.32298863842776	0.32298863842776	0.32298863842776	0.32298863842776	0.32298863842776
0.320043023621784	0.320043023621784	0.320043023621784	0.320043023621784	0.320043023621784	0.320043023621784
0.250829118048542	0.250829118048542	0.250829118048542	0.250829118048542	0.250829118048542	0.250829118048542
0.345570079937411	0.345570079937411	0.345570079937411	0.345570079937411	0.345570079937411	0.345570079937411
0.361716332366851	0.361716332366851	0.361716332366851	0.361716332366851	0.361716332366851	0.361716332366851
0.299724987880676	0.299724987880676	0.299724987880676	0.299724987880676	0.299724987880676	0.299724987880676
0.357851836029065	0.357851836029065	0.357851836029065	0.357851836029065	0.357851836029065	0.357851836029065
0.455643894435548	0.455643894435548	0.455643894435548	0.455643894435548	0.455643894435548	0.455643894435548
0.404342820151134	0.404342820151134	0.404342820151134	0.404342820151134	0.404342820151134	0.404342820151134
0.477266561234563	0.477266561234563	0.477266561234563	0.477266561234563	0.477266561234563	0.477266561234563
0.377280540645621	0.377280540645621	0.377280540645621	0.377280540645621	0.377280540645621	0.377280540645621
0.496131634466658	0.496131634466658	0.496131634466658	0.496131634466658	0.496131634466658	0.496131634466658
0.439133408533903	0.439133408533903	0.439133408533903	0.439133408533903	0.439133408533903	0.439133408533903
0.36346043997191	0.36346043997191	0.36346043997191	0.36346043997191	0.36346043997191	0.36346043997191
0.484304414234297	0.484304414234297	0.484304414234297	0.484304414234297	0.484304414234297	0.484304414234297
0.428249134908897	0.428249134908897	0.428249134908897	0.428249134908897	0.428249134908897	0.428249134908897
0.387195918831913	0.387195918831913	0.387195918831913	0.387195918831913	0.387195918831913	0.387195918831913
0.541638465391749	0.541638465391749	0.541638465391749	0.541638465391749	0.541638465391749	0.541638465391749
0.490616046779106	0.490616046779106	0.490616046779106	0.490616046779106	0.490616046779106	0.490616046779106
0.376174813104432	0.376174813104432	0.376174813104432	0.376174813104432	0.376174813104432	0.376174813104432
0.496423215346157	0.496423215346157	0.496423215346157	0.496423215346157	0.496423215346157	0.496423215346157
0.389935919954719	0.389935919954719	0.389935919954719	0.389935919954719	0.389935919954719	0.389935919954719
0.529599941926647	0.529599941926647	0.529599941926647	0.529599941926647	0.529599941926647	0.529599941926647
0.34392173941086	0.34392173941086	0.34392173941086	0.34392173941086	0.34392173941086	0.34392173941086
0.507009179264916	0.507009179264916	0.507009179264916	0.507009179264916	0.507009179264916	0.507009179264916
0.370675823910388	0.370675823910388	0.370675823910388	0.370675823910388	0.370675823910388	0.370675823910388
0.416868000852782	0.416868000852782	0.416868000852782	0.416868000852782	0.416868000852782	0.416868000852782
0.293850760558588	0.293850760558588	0.293850760558588	0.293850760558588	0.293850760558588	0.293850760558588
0.296104307840026	0.296104307840026	0.296104307840026	0.296104307840026	0.296104307840026	0.296104307840026
0.374310812472716	0.374310812472716	0.374310812472716	0.374310812472716	0.374310812472716	0.374310812472716
0.43034732210283	0.43034732210283	0.43034732210283	0.43034732210283	0.43034732210283	0.43034732210283
0.358434606026	0.358434606026	0.358434606026	0.358434606026	0.358434606026	0.358434606026
0.378044471937886	0.378044471937886	0.378044471937886	0.378044471937886	0.378044471937886	0.378044471937886
0.274116621648888	0.274116621648888	0.274116621648888	0.274116621648888	0.274116621648888	0.274116621648888
0.241093538860622	0.241093538860622	0.241093538860622	0.241093538860622	0.241093538860622	0.241093538860622
0.175015372877741	0.175015372877741	0.175015372877741	0.175015372877741	0.175015372877741	0.175015372877741
0.18548122306949	0.18548122306949	0.18548122306949	0.18548122306949	0.18548122306949	0.18548122306949
0.139011890203779	0.139011890203779	0.139011890203779	0.139011890203779	0.139011890203779	0.139011890203779
0.277000393829344	0.277000393829344	0.277000393829344	0.277000393829344	0.277000393829344	0.277000393829344
0.0812744287957384	0.0812744287957384	0.0812744287957384	0.0812744287957384	0.0812744287957384	0.0812744287957384
0.103699066704082	0.103699066704082	0.103699066704082	0.103699066704082	0.103699066704082	0.103699066704082
0.176458302594216	0.176458302594216	0.176458302594216	0.176458302594216	0.176458302594216	0.176458302594216
0.0804848303199157	0.0804848303199157	0.0804848303199157	0.0804848303199157	0.0804848303199157	0.0804848303199157
0.118360375465554	0.118360375465554	0.118360375465554	0.118360375465554	0.118360375465554	0.118360375465554
0.0936099114687724	0.0936099114687724	0.0936099114687724	0.0936099114687724	0.0936099114687724	0.0936099114687724
0.187393430029702	0.187393430029702	0.187393430029702	0.187393430029702	0.187393430029702	0.187393430029702
0.0161797156240701	0.0161797156240701	0.0161797156240701	0.0161797156240701	0.0161797156240701	0.0161797156240701
0.0136937184911597	0.0136937184911597	0.0136937184911597	0.0136937184911597	0.0136937184911597	0.0136937184911597
0.0735644129165561	0.0735644129165561	0.0735644129165561	0.0735644129165561	0.0735644129165561	0.0735644129165561
-0.0284845190348214	-0.0284845190348214	-0.0284845190348214	-0.0284845190348214	-0.0284845190348214	-0.0284845190348214
0.107980577652015	0.107980577652015	0.107980577652015	0.107980577652015	0.107980577652015	0.107980577652015
0.0912838789238757	0.0912838789238757	0.0912838789238757	0.0912838789238757	0.0912838789238757	0.0912838789238757
0.108666112293939	0.108666112293939	0.108666112293939	0.108666112293939	0.108666112293939	0.108666112293939
-0.0336109552038213	-0.0336109552038213	-0.0336109552038213	-0.0336109552038213	-0.0336109552038213	-0.0336109552038213
0.0313060055060367	0.0313060055060367	0.0313060055060367	0.0313060055060367	0.0313060055060367	0.0313060055060367
0.00761709252539622	0.00761709252539622	0.00761709252539622	0.00761709252539622	0.00761709252539622	0.00761709252539622
0.120265027435697	0.120265027435697	0.120265027435697	0.120265027435697	0.120265027435697	0.120265027435697
-0.0484928201900337	-0.0484928201900337	-0.0484928201900337	-0.0484928201900337	-0.0484928201900337	-0.0484928201900337
-0.0309798381866499	-0.0309798381866499	-0.0309798381866499	-0.0309798381866499	-0.0309798381866499	-0.0309798381866499
0.0664711489790629	0.0664711489790629	0.0664711489790629	0.0664711489790629	0.0664711489790629	0.0664711489790629
-0.0238947520507547	-0.0238947520507547	-0.0238947520507547	-0.0238947520507547	-0.0238947520507547	-0.0238947520507547
-0.054653246078033	-0.054653246078033	-0.054653246078033	-0.054653246078033	-0.054653246078033	-0.054653246078033
-0.0496158513008291	-0.0496158513008291	-0.0496158513008291	-0.0496158513008291	-0.0496158513008291	-0.0496158513008291
0.011874034074568	0.011874034074568	0.011874034074568	0.011874034074568	0.011874034074568	0.011874034074568
-0.0386548189766002	-0.0386548189766002	-0.0386548189766002	-0.0386548189766002	-0.0386548189766002	-0.0386548189766002
-0.0605675453001973	-0.0605675453001973	-0.0605675453001973	-0.0605675453001973	-0.0605675453001973	-0.0605675453001973
-0.00616916585797743	-0.00616916585797743	-0.00616916585797743	-0.00616916585797743	-0.00616916585797743	-0.00616916585797743
-0.00506495871462236	-0.00506495871462236	-0.00506495871462236	-0.00506495871462236	-0.00506495871462236	-0.00506495871462236
-0.0578777332624929	-0.0578777332624929	-0.0578777332624929	-0.0578777332624929	-0.0578777332624929	-0.0578777332624929
0.0431240662323981	0.0431240662323981	0.0431240662323981	0.0431240662323981	0.0431240662323981	0.0431240662323981
-0.0785658739634958	-0.0785658739634958	-0.0785658739634958	-0.0785658739634958	-0.0785658739634958	-0.0785658739634958
-0.00271259358725007	-0.00271259358725007	-0.00271259358725007	-0.00271259358725007	-0.00271259358725007	-0.00271259358725007
0.0435372435228124	0.0435372435228124	0.0435372435228124	0.0435372435228124	0.0435372435228124	0.0435372435228124
0.0335791314422967	0.0335791314422967	0.0335791314422967	0.0335791314422967	0.0335791314422967	0.0335791314422967
-0.0603766679067783	-0.0603766679067783	-0.0603766679067783	-0.0603766679067783	-0.0603766679067783	-0.0603766679067783
0.0860352818515351	0.0860352818515351	0.0860352818515351	0.0860352818515351	0.0860352818515351	0.0860352818515351
0.0411896617207879	0.0411896617207879	0.0411896617207879	0.0411896617207879	0.0411896617207879	0.0411896617207879
-0.0611237250420133	-0.0611237250420133	-0.0611237250420133	-0.0611237250420133	-0.0611237250420133	-0.0611237250420133
0.0965326841469652	0.0965326841469652	0.0965326841469652	0.0965326841469652	0.0965326841469652	0.0965326841469652
0.0676883236990322	0.0676883236990322	0.0676883236990322	0.0676883236990322	0.0676883236990322	0.0676883236990322
-0.0445785731119396	-0.0445785731119396	-0.0445785731119396	-0.0445785731119396	-0.0445785731119396	-0.0445785731119396
0.103367084259001	0.103367084259001	0.103367084259001	0.103367084259001	0.103367084259001	0.103367084259001
0.00679799348865527	0.00679799348865527	0.00679799348865527	0.00679799348865527	0.00679799348865527	0.00679799348865527
-0.0112607779739172	-0.0112607779739172	-0.0112607779739172	-0.0112607779739172	-0.0112607779739172	-0.0112607779739172
0.103191578234799	0.103191578234799	0.103191578234799	0.103191578234799	0.103191578234799	0.103191578234799
-0.0550276317246496	-0.0550276317246496	-0.0550276317246496	-0.0550276317246496	-0.0550276317246496	-0.0550276317246496
0.0120275677435656	0.0120275677435656	0.0120275677435656	0.0120275677435656	0.0120275677435656	0.0120275677435656
-0.0649446209858088	-0.0649446209858088	-0.0649446209858088	-0.0649446209858088	-0.0649446209858088	-0.0649446209858088
-0.0347934209591687	-0.0347934209591687	-0.0347934209591687	-0.0347934209591687	-0.0347934209591687	-0.0347934209591687
0.0677337880338609	0.0677337880338609	0.0677337880338609	0.0677337880338609	0.0677337880338609	0.0677337880338609
0.0217997713525289	0.0217997713525289	0.0217997713525289	0.0217997713525289	0.0217997713525289	0.0217997713525289
-0.0343377458370924	-0.0343377458370924	-0.0343377458370924	-0.0343377458370924	-0.0343377458370924	-0.0343377458370924
-0.0702576391682788	-0.0702576391682788	-0.0702576391682788	-0.0702576391682788	-0.0702576391682788	-0.0702576391682788
0.0903412074398911	0.0903412074398911	0.0903412074398911	0.0903412074398911	0.0903412074398911	0.0903412074398911
-0.050199077727486	-0.050199077727486	-0.050199077727486	-0.050199077727486	-0.050199077727486	-0.050199077727486
-0.00411658172858465	-0.00411658172858465	-0.00411658172858465	-0.00411658172858465	-0.00411658172858465	-0.00411658172858465
-0.0278387457032363	-0.0278387457032363	-0.0278387457032363	-0.0278387457032363	-0.0278387457032363	-0.0278387457032363
-0.052932900643691	-0.052932900643691	-0.052932900643691	-0.052932900643691	-0.052932900643691	-0.052932900643691
0.0727188751676689	0.0727188751676689	0.0727188751676689	0.0727188751676689	0.0727188751676689	0.0727188751676689
0.0192293007232864	0.0192293007232864	0.0192293007232864	0.0192293007232864	0.0192293007232864	0.0192293007232864
0.131484014465023	0.131484014465023	0.131484014465023	0.131484014465023	0.131484014465023	0.131484014465023
0.0338985496418889	0.0338985496418889	0.0338985496418889	0.0338985496418889	0.0338985496418889	0.0338985496418889
-0.0607023170642935	-0.0607023170642935	-0.0607023170642935	-0.0607023170642935	-0.0607023170642935	-0.0607023170642935
-0.0206944382792505	-0.0206944382792505	-0.0206944382792505	-0.0206944382792505	-0.0206944382792505	-0.0206944382792505
0.0335305340777363	0.0335305340777363	0.0335305340777363	0.0335305340777363	0.0335305340777363	0.0335305340777363
-0.0443822031955221	-0.0443822031955221	-0.0443822031955221	-0.0443822031955221	-0.0443822031955221	-0.0443822031955221
-0.0193136128428872	-0.0193136128428872	-0.0193136128428872	-0.0193136128428872	-0.0193136128428872	-0.0193136128428872
0.0731539929474058	0.0731539929474058	0.0731539929474058	0.0731539929474058	0.0731539929474058	0.0731539929474058
0.109476387049513	0.109476387049513	0.109476387049513	0.109476387049513	0.109476387049513	0.109476387049513
0.00256192467896769	0.00256192467896769	0.00256192467896769	0.00256192467896769	0.00256192467896769	0.00256192467896769
0.0979102788831628	0.0979102788831628	0.0979102788831628	0.0979102788831628	0.0979102788831628	0.0979102788831628
0.0791257310979452	0.0791257310979452	0.0791257310979452	0.0791257310979452	0.0791257310979452	0.0791257310979452
0.011028269927946	0.011028269927946	0.011028269927946	0.011028269927946	0.011028269927946	0.011028269927946
0.0443876777729076	0.0443876777729076	0.0443876777729076	0.0443876777729076	0.0443876777729076	0.0443876777729076
0.0784582244685729	0.0784582244685729	0.0784582244685729	0.0784582244685729	0.0784582244685729	0.0784582244685729
0.0159380247024577	0.0159380247024577	0.0159380247024577	0.0159380247024577	0.0159380247024577	0.0159380247024577
0.023245607902199	0.023245607902199	0.023245607902199	0.023245607902199	0.023245607902199	0.023245607902199
-0.0386272255711912	-0.0386272255711912	-0.0386272255711912	-0.0386272255711912	-0.0386272255711912	-0.0386272255711912
0.10022802102927	0.10022802102927	0.10022802102927	0.10022802102927	0.10022802102927	0.10022802102927
0.0952190084039074	0.0952190084039074	0.0952190084039074	0.0952190084039074	0.0952190084039074	0.0952190084039074
0.00289499486740705	0.00289499486740705	0.00289499486740705	0.00289499486740705	0.00289499486740705	0.00289499486740705
0.0356516109126166	0.0356516109126166	0.0356516109126166	0.0356516109126166	0.0356516109126166	0.0356516109126166
-0.0310371498734802	-0.0310371498734802	-0.0310371498734802	-0.0310371498734802	-0.0310371498734802	-0.0310371498734802
-0.0285981017180611	-0.0285981017180611	-0.0285981017180611	-0.0285981017180611	-0.0285981017180611	-0.0285981017180611
0.151090291566642	0.151090291566642	0.151090291566642	0.151090291566642	0.151090291566642	0.151090291566642
0.101051359676426	0.101051359676426	0.101051359676426	0.101051359676426	0.101051359676426	0.101051359676426
-0.00608048215491064	-0.00608048215491064	-0.00608048215491064	-0.00608048215491064	-0.00608048215491064	-0.00608048215491064
0.175676295316498	0.175676295316498	0.175676295316498	0.175676295316498	0.175676295316498	0.175676295316498
0.0484464583208547	0.0484464583208547	0.0484464583208547	0.0484464583208547	0.0484464583208547	0.0484464583208547
0.0105728503903224	0.0105728503903224	0.0105728503903224	0.0105728503903224	0.0105728503903224	0.0105728503903224
0.168424973601613	0.168424973601613	0.168424973601613	0.168424973601613	0.168424973601613	0.168424973601613
0.0472157679276791	0.0472157679276791	0.0472157679276791	0.0472157679276791	0.0472157679276791	0.0472157679276791
0.234402444320769	0.234402444320769	0.234402444320769	0.234402444320769	0.234402444320769	0.234402444320769
0.179270391225326	0.179270391225326	0.179270391225326	0.179270391225326	0.179270391225326	0.179270391225326
0.1175342581587	0.1175342581587	0.1175342581587	0.1175342581587	0.1175342581587	0.1175342581587
0.119799861999438	0.119799861999438	0.119799861999438	0.119799861999438	0.119799861999438	0.119799861999438
0.165166010672491	0.165166010672491	0.165166010672491	0.165166010672491	0.165166010672491	0.165166010672491
0.151924904604134	0.151924904604134	0.151924904604134	0.151924904604134	0.151924904604134	0.151924904604134
0.203983880456788	0.203983880456788	0.203983880456788	0.203983880456788	0.203983880456788	0.203983880456788
0.164835229593337	0.164835229593337	0.164835229593337	0.164835229593337	0.164835229593337	0.164835229593337
0.247388361448943	0.247388361448943	0.247388361448943	0.247388361448943	0.247388361448943	0.247388361448943
0.375469747185619	0.375469747185619	0.375469747185619	0.375469747185619	0.375469747185619	0.375469747185619
0.360308187434641	0.360308187434641	0.360308187434641	0.360308187434641	0.360308187434641	0.360308187434641
0.317599853859244	0.317599853859244	0.317599853859244	0.317599853859244	0.317599853859244	0.317599853859244
0.349895976212009	0.349895976212009	0.349895976212009	0.349895976212009	0.349895976212009	0.349895976212009
0.24103593912253	0.24103593912253	0.24103593912253	0.24103593912253	0.24103593912253	0.24103593912253
0.333184635668784	0.333184635668784	0.333184635668784	0.333184635668784	0.333184635668784	0.333184635668784
0.314190222969112	0.314190222969112	0.314190222969112	0.314190222969112	0.314190222969112	0.314190222969112
0.352532298160749	0.352532298160749	0.352532298160749	0.352532298160749	0.352532298160749	0.352532298160749
0.245757131958606	0.245757131958606	0.245757131958606	0.245757131958606	0.245757131958606	0.245757131958606
0.298655635974579	0.298655635974579	0.298655635974579	0.298655635974579	0.298655635974579	0.298655635974579
0.249551376137416	0.249551376137416	0.249551376137416	0.249551376137416	0.249551376137416	0.249551376137416
0.323564153129472	0.323564153129472	0.323564153129472	0.323564153129472	0.323564153129472	0.323564153129472
0.263512424385917	0.263512424385917	0.263512424385917	0.263512424385917	0.263512424385917	0.263512424385917
0.328115540776096	0.328115540776096	0.328115540776096	0.328115540776096	0.328115540776096	0.328115540776096
0.179436593820852	0.179436593820852	0.179436593820852	0.179436593820852	0.179436593820852	0.179436593820852
0.174822031367005	0.174822031367005	0.174822031367005	0.174822031367005	0.174822031367005	0.174822031367005
0.128445023313945	0.128445023313945	0.128445023313945	0.128445023313945	0.128445023313945	0.128445023313945
0.122377083761736	0.122377083761736	0.122377083761736	0.122377083761736	0.122377083761736	0.122377083761736
0.157138170956174	0.157138170956174	0.157138170956174	0.157138170956174	0.157138170956174	0.157138170956174
0.189944916496835	0.189944916496835	0.189944916496835	0.189944916496835	0.189944916496835	0.189944916496835
0.0538144238818574	0.0538144238818574	0.0538144238818574	0.0538144238818574	0.0538144238818574	0.0538144238818574
0.0345051128795091	0.0345051128795091	0.0345051128795091	0.0345051128795091	0.0345051128795091	0.0345051128795091
0.167039621715936	0.167039621715936	0.167039621715936	0.167039621715936	0.167039621715936	0.167039621715936
0.136463503108554	0.136463503108554	0.136463503108554	0.136463503108554	0.136463503108554	0.136463503108554
-0.0108629443442716	-0.0108629443442716	-0.0108629443442716	-0.0108629443442716	-0.0108629443442716	-0.0108629443442716
0.174811591936688	0.174811591936688	0.174811591936688	0.174811591936688	0.174811591936688	0.174811591936688
0.0510321902891093	0.0510321902891093	0.0510321902891093	0.0510321902891093	0.0510321902891093	0.0510321902891093
0.0831049559979308	0.0831049559979308	0.0831049559979308	0.0831049559979308	0.0831049559979308	0.0831049559979308
0.00337065158864207	0.00337065158864207	0.00337065158864207	0.00337065158864207	0.00337065158864207	0.00337065158864207
9.3055242179084e-05	9.3055242179084e-05	9.3055242179084e-05	9.3055242179084e-05	9.3055242179084e-05	9.3055242179084e-05
0.013921102661734	0.013921102661734	0.013921102661734	0.013921102661734	0.013921102661734	0.013921102661734
-0.0509854693379755	-0.0509854693379755	-0.0509854693379755	-0.0509854693379755	-0.0509854693379755	-0.0509854693379755
0.101493391697267	0.101493391697267	0.101493391697267	0.101493391697267	0.101493391697267	0.101493391697267
-0.0618318804330194	-0.0618318804330194	-0.0618318804330194	-0.0618318804330194	-0.0618318804330194	-0.0618318804330194
0.051913068281106	0.051913068281106	0.051913068281106	0.051913068281106	0.051913068281106	0.051913068281106
-0.0391408125464328	-0.0391408125464328	-0.0391408125464328	-0.0391408125464328	-0.0391408125464328	-0.0391408125464328
0.0754561106182178	0.0754561106182178	0.0754561106182178	0.0754561106182178	0.0754561106182178	0.0754561106182178
-0.0465077520626765	-0.0465077520626765	-0.0465077520626765	-0.0465077520626765	-0.0465077520626765	-0.0465077520626765
0.0112554947106335	0.0112554947106335	0.0112554947106335	0.0112554947106335	0.0112554947106335	0.0112554947106335
-0.0153323314787625	-0.0153323314787625	-0.0153323314787625	-0.0153323314787625	-0.0153323314787625	-0.0153323314787625
-0.144537125231552	-0.144537125231552	-0.144537125231552	-0.144537125231552	-0.144537125231552	-0.144537125231552
-0.0692523853782991	-0.0692523853782991	-0.0692523853782991	-0.0692523853782991	-0.0692523853782991	-0.0692523853782991
-0.0749223224958381	-0.0749223224958381	-0.0749223224958381	-0.0749223224958381	-0.0749223224958381	-0.0749223224958381
-0.138109507175853	-0.138109507175853	-0.138109507175853	-0.138109507175853	-0.138109507175853	-0.138109507175853
-0.0436272195668816	-0.0436272195668816	-0.0436272195668816	-0.0436272195668816	-0.0436272195668816	-0.0436272195668816
-0.103812649212663	-0.103812649212663	-0.103812649212663	-0.103812649212663	-0.103812649212663	-0.103812649212663
-0.0359389030704568	-0.0359389030704568	-0.0359389030704568	-0.0359389030704568	-0.0359389030704568	-0.0359389030704568
0.232465486826723	0.232465486826723	0.232465486826723	0.232465486826723	0.232465486826723	0.232465486826723
0.340835979391281	0.340835979391281	0.340835979391281	0.340835979391281	0.340835979391281	0.340835979391281
0.422595464339898	0.422595464339898	0.422595464339898	0.422595464339898	0.422595464339898	0.422595464339898
0.749587463953012	0.749587463953012	0.749587463953012	0.749587463953012	0.749587463953012	0.749587463953012
0.985551672675535	0.985551672675535	0.985551672675535	0.985551672675535	0.985551672675535	0.985551672675535
0.997972031445638	0.997972031445638	0.997972031445638	0.997972031445638	0.997972031445638	0.997972031445638
1.18237430531199	1.18237430531199	1.18237430531199	1.18237430531199	1.18237430531199	1.18237430531199
1.17763813275977	1.17763813275977	1.17763813275977	1.17763813275977	1.17763813275977	1.17763813275977
1.1078974062946	1.1078974062946	1.1078974062946	1.1078974062946	1.1078974062946	1.1078974062946
1.03090183846702	1.03090183846702	1.03090183846702	1.03090183846702	1.03090183846702	1.03090183846702
0.700739055170898	0.700739055170898	0.700739055170898	0.700739055170898	0.700739055170898	0.700739055170898
0.611117326730631	0.611117326730631	0.611117326730631	0.611117326730631	0.611117326730631	0.611117326730631
0.271992211399564	0.271992211399564	0.271992211399564	0.271992211399564	0.271992211399564	0.271992211399564
0.127934160747154	0.127934160747154	0.127934160747154	0.127934160747154	0.127934160747154	0.127934160747154
0.0149292304474974	0.0149292304474974	0.0149292304474974	0.0149292304474974	0.0149292304474974	0.0149292304474974
-0.172498930948832	-0.172498930948832	-0.172498930948832	-0.172498930948832	-0.172498930948832	-0.172498930948832
-0.18322690728715	-0.18322690728715	-0.18322690728715	-0.18322690728715	-0.18322690728715	-0.18322690728715
-0.32822072436203	-0.32822072436203	-0.32822072436203	-0.32822072436203	-0.32822072436203	-0.32822072436203
-0.241445793065325	-0.241445793065325	-0.241445793065325	-0.241445793065325	-0.241445793065325	-0.241445793065325
-0.271722785252587	-0.271722785252587	-0.271722785252587	-0.271722785252587	-0.271722785252587	-0.271722785252587
-0.214370953312081	-0.214370953312081	-0.214370953312081	-0.214370953312081	-0.214370953312081	-0.214370953312081
-0.190482992452048	-0.190482992452048	-0.190482992452048	-0.190482992452048	-0.190482992452048	-0.190482992452048
-0.119161798315203	-0.119161798315203	-0.119161798315203	-0.119161798315203	-0.119161798315203	-0.119161798315203
-0.184319463517601	-0.184319463517601	-0.184319463517601	-0.184319463517601	-0.184319463517601	-0.184319463517601
-0.10197337116546	-0.10197337116546	-0.10197337116546	-0.10197337116546	-0.10197337116546	-0.10197337116546
-0.029654782453147	-0.029654782453147	-0.029654782453147	-0.029654782453147	-0.029654782453147	-0.029654782453147
-0.115288179594751	-0.115288179594751	-0.115288179594751	-0.115288179594751	-0.115288179594751	-0.115288179594751
0.0469524566337524	0.0469524566337524	0.0469524566337524	0.0469524566337524	0.0469524566337524	0.0469524566337524
0.0726539859147231	0.0726539859147231	0.0726539859147231	0.0726539859147231	0.0726539859147231	0.0726539859147231
0.0211876418229806	0.0211876418229806	0.0211876418229806	0.0211876418229806	0.0211876418229806	0.0211876418229806
0.0635528794667802	0.0635528794667802	0.0635528794667802	0.0635528794667802	0.0635528794667802	0.0635528794667802
-0.0401737410054861	-0.0401737410054861	-0.0401737410054861	-0.0401737410054861	-0.0401737410054861	-0.0401737410054861
-0.0939062992159915	-0.0939062992159915	-0.0939062992159915	-0.0939062992159915	-0.0939062992159915	-0.0939062992159915
0.0957926824258299	0.0957926824258299	0.0957926824258299	0.0957926824258299	0.0957926824258299	0.0957926824258299
0.0547720135934393	0.0547720135934393	0.0547720135934393	0.0547720135934393	0.0547720135934393	0.0547720135934393
0.014480905415857	0.014480905415857	0.014480905415857	0.014480905415857	0.014480905415857	0.014480905415857
0.0984964238130074	0.0984964238130074	0.0984964238130074	0.0984964238130074	0.0984964238130074	0.0984964238130074
-0.0385489836896258	-0.0385489836896258	-0.0385489836896258	-0.0385489836896258	-0.0385489836896258	-0.0385489836896258
0.0161718590571391	0.0161718590571391	0.0161718590571391	0.0161718590571391	0.0161718590571391	0.0161718590571391
0.0256970485100985	0.0256970485100985	0.0256970485100985	0.0256970485100985	0.0256970485100985	0.0256970485100985
-0.0239059973794341	-0.0239059973794341	-0.0239059973794341	-0.0239059973794341	-0.0239059973794341	-0.0239059973794341
0.0462243816843964	0.0462243816843964	0.0462243816843964	0.0462243816843964	0.0462243816843964	0.0462243816843964
0.0836297160973784	0.0836297160973784	0.0836297160973784	0.0836297160973784	0.0836297160973784	0.0836297160973784
0.062547353473683	0.062547353473683	0.062547353473683	0.062547353473683	0.062547353473683	0.062547353473683
0.115362033714626	0.115362033714626	0.115362033714626	0.115362033714626	0.115362033714626	0.115362033714626
-0.00186619853873396	-0.00186619853873396	-0.00186619853873396	-0.00186619853873396	-0.00186619853873396	-0.00186619853873396
0.00193387313375001	0.00193387313375001	0.00193387313375001	0.00193387313375001	0.00193387313375001	0.00193387313375001
0.0844784139534038	0.0844784139534038	0.0844784139534038	0.0844784139534038	0.0844784139534038	0.0844784139534038
0.153079390891281	0.153079390891281	0.153079390891281	0.153079390891281	0.153079390891281	0.153079390891281
0.0446751071343447	0.0446751071343447	0.0446751071343447	0.0446751071343447	0.0446751071343447	0.0446751071343447
0.124584715198205	0.124584715198205	0.124584715198205	0.124584715198205	0.124584715198205	0.124584715198205
0.181183662150914	0.181183662150914	0.181183662150914	0.181183662150914	0.181183662150914	0.181183662150914
0.0717737337556287	0.0717737337556287	0.0717737337556287	0.0717737337556287	0.0717737337556287	0.0717737337556287
0.145763476213941	0.145763476213941	0.145763476213941	0.145763476213941	0.145763476213941	0.145763476213941
0.17292106926316	0.17292106926316	0.17292106926316	0.17292106926316	0.17292106926316	0.17292106926316
0.281172550801197	0.281172550801197	0.281172550801197	0.281172550801197	0.281172550801197	0.281172550801197
0.232762840450779	0.232762840450779	0.232762840450779	0.232762840450779	0.232762840450779	0.232762840450779
0.311485322827383	0.311485322827383	0.311485322827383	0.311485322827383	0.311485322827383	0.311485322827383
0.266973156378963	0.266973156378963	0.266973156378963	0.266973156378963	0.266973156378963	0.266973156378963
0.193418905921927	0.193418905921927	0.193418905921927	0.193418905921927	0.193418905921927	0.193418905921927
0.337433643021391	0.337433643021391	0.337433643021391	0.337433643021391	0.337433643021391	0.337433643021391
0.223262785296388	0.223262785296388	0.223262785296388	0.223262785296388	0.223262785296388	0.223262785296388
0.276541608066972	0.276541608066972	0.276541608066972	0.276541608066972	0.276541608066972	0.276541608066972
0.222395962950866	0.222395962950866	0.222395962950866	0.222395962950866	0.222395962950866	0.222395962950866
0.407252465652919	0.407252465652919	0.407252465652919	0.407252465652919	0.407252465652919	0.407252465652919
0.342924658195684	0.342924658195684	0.342924658195684	0.342924658195684	0.342924658195684	0.342924658195684
0.335221833844331	0.335221833844331	0.335221833844331	0.335221833844331	0.335221833844331	0.335221833844331
0.450766972528732	0.450766972528732	0.450766972528732	0.450766972528732	0.450766972528732	0.450766972528732
0.367814668366831	0.367814668366831	0.367814668366831	0.367814668366831	0.367814668366831	0.367814668366831
0.369414417213662	0.369414417213662	0.369414417213662	0.369414417213662	0.369414417213662	0.369414417213662
0.43943105592888	0.43943105592888	0.43943105592888	0.43943105592888	0.43943105592888	0.43943105592888
0.455992806444298	0.455992806444298	0.455992806444298	0.455992806444298	0.455992806444298	0.455992806444298
0.438361898511077	0.438361898511077	0.438361898511077	0.438361898511077	0.438361898511077	0.438361898511077
0.451039922676604	0.451039922676604	0.451039922676604	0.451039922676604	0.451039922676604	0.451039922676604
0.392776212561342	0.392776212561342	0.392776212561342	0.392776212561342	0.392776212561342	0.392776212561342
0.502750354023997	0.502750354023997	0.502750354023997	0.502750354023997	0.502750354023997	0.502750354023997
0.523377102815436	0.523377102815436	0.523377102815436	0.523377102815436	0.523377102815436	0.523377102815436
0.521009906508237	0.521009906508237	0.521009906508237	0.521009906508237	0.521009906508237	0.521009906508237
0.484438085568981	0.484438085568981	0.484438085568981	0.484438085568981	0.484438085568981	0.484438085568981
0.351634827918256	0.351634827918256	0.351634827918256	0.351634827918256	0.351634827918256	0.351634827918256
0.357198699546536	0.357198699546536	0.357198699546536	0.357198699546536	0.357198699546536	0.357198699546536
0.359494899095451	0.359494899095451	0.359494899095451	0.359494899095451	0.359494899095451	0.359494899095451
0.372759601636219	0.372759601636219	0.372759601636219	0.372759601636219	0.372759601636219	0.372759601636219
0.305305760380111	0.305305760380111	0.305305760380111	0.305305760380111	0.305305760380111	0.305305760380111
0.402867652081948	0.402867652081948	0.402867652081948	0.402867652081948	0.402867652081948	0.402867652081948
0.315115153496024	0.315115153496024	0.315115153496024	0.315115153496024	0.315115153496024	0.315115153496024
0.314588702044768	0.314588702044768	0.314588702044768	0.314588702044768	0.314588702044768	0.314588702044768
0.265196959326465	0.265196959326465	0.265196959326465	0.265196959326465	0.265196959326465	0.265196959326465
0.247167100875576	0.247167100875576	0.247167100875576	0.247167100875576	0.247167100875576	0.247167100875576
0.21898440889057	0.21898440889057	0.21898440889057	0.21898440889057	0.21898440889057	0.21898440889057
0.319153521925869	0.319153521925869	0.319153521925869	0.319153521925869	0.319153521925869	0.319153521925869
0.300677443568922	0.300677443568922	0.300677443568922	0.300677443568922	0.300677443568922	0.300677443568922
0.157151144743241	0.157151144743241	0.157151144743241	0.157151144743241	0.157151144743241	0.157151144743241
0.16473413693111	0.16473413693111	0.16473413693111	0.16473413693111	0.16473413693111	0.16473413693111
0.171662204416528	0.171662204416528	0.171662204416528	0.171662204416528	0.171662204416528	0.171662204416528
0.151540202434935	0.151540202434935	0.151540202434935	0.151540202434935	0.151540202434935	0.151540202434935
0.124150687586611	0.124150687586611	0.124150687586611	0.124150687586611	0.124150687586611	0.124150687586611
0.192938056108004	0.192938056108004	0.192938056108004	0.192938056108004	0.192938056108004	0.192938056108004
0.145219341414904	0.145219341414904	0.145219341414904	0.145219341414904	0.145219341414904	0.145219341414904
0.092158128457257	0.092158128457257	0.092158128457257	0.092158128457257	0.092158128457257	0.092158128457257
0.0979545291288969	0.0979545291288969	0.0979545291288969	0.0979545291288969	0.0979545291288969	0.0979545291288969
0.114554876207661	0.114554876207661	0.114554876207661	0.114554876207661	0.114554876207661	0.114554876207661
-0.00762812749472899	-0.00762812749472899	-0.00762812749472899	-0.00762812749472899	-0.00762812749472899	-0.00762812749472899
0.0185190520423097	0.0185190520423097	0.0185190520423097	0.0185190520423097	0.0185190520423097	0.0185190520423097
-0.00732033714077378	-0.00732033714077378	-0.00732033714077378	-0.00732033714077378	-0.00732033714077378	-0.00732033714077378
0.0477545151288263	0.0477545151288263	0.0477545151288263	0.0477545151288263	0.0477545151288263	0.0477545151288263
0.0641424346252883	0.0641424346252883	0.0641424346252883	0.0641424346252883	0.0641424346252883	0.0641424346252883
0.0847220045369015	0.0847220045369015	0.0847220045369015	0.0847220045369015	0.0847220045369015	0.0847220045369015
-0.0426058836350928	-0.0426058836350928	-0.0426058836350928	-0.0426058836350928	-0.0426058836350928	-0.0426058836350928
-0.0509871022432718	-0.0509871022432718	-0.0509871022432718	-0.0509871022432718	-0.0509871022432718	-0.0509871022432718
0.0229842006476761	0.0229842006476761	0.0229842006476761	0.0229842006476761	0.0229842006476761	0.0229842006476761
-0.0929604121635694	-0.0929604121635694	-0.0929604121635694	-0.0929604121635694	-0.0929604121635694	-0.0929604121635694
-0.0139233690151756	-0.0139233690151756	-0.0139233690151756	-0.0139233690151756	-0.0139233690151756	-0.0139233690151756
-0.0992932326995127	-0.0992932326995127	-0.0992932326995127	-0.0992932326995127	-0.0992932326995127	-0.0992932326995127
-0.0896571161633172	-0.0896571161633172	-0.0896571161633172	-0.0896571161633172	-0.0896571161633172	-0.0896571161633172
-0.0889935246148859	-0.0889935246148859	-0.0889935246148859	-0.0889935246148859	-0.0889935246148859	-0.0889935246148859
0.00767357672650204	0.00767357672650204	0.00767357672650204	0.00767357672650204	0.00767357672650204	0.00767357672650204
-0.00459569980063359	-0.00459569980063359	-0.00459569980063359	-0.00459569980063359	-0.00459569980063359	-0.00459569980063359
-0.0894849033342642	-0.0894849033342642	-0.0894849033342642	-0.0894849033342642	-0.0894849033342642	-0.0894849033342642
0.0470638642856095	0.0470638642856095	0.0470638642856095	0.0470638642856095	0.0470638642856095	0.0470638642856095
-0.0399428295537884	-0.0399428295537884	-0.0399428295537884	-0.0399428295537884	-0.0399428295537884	-0.0399428295537884
-0.120387664183907	-0.120387664183907	-0.120387664183907	-0.120387664183907	-0.120387664183907	-0.120387664183907
0.0428717573732802	0.0428717573732802	0.0428717573732802	0.0428717573732802	0.0428717573732802	0.0428717573732802
-0.0183449769128785	-0.0183449769128785	-0.0183449769128785	-0.0183449769128785	-0.0183449769128785	-0.0183449769128785
-0.0582613401778104	-0.0582613401778104	-0.0582613401778104	-0.0582613401778104	-0.0582613401778104	-0.0582613401778104
-0.0406884553859367	-0.0406884553859367	-0.0406884553859367	-0.0406884553859367	-0.0406884553859367	-0.0406884553859367
-0.00376691846817834	-0.00376691846817834	-0.00376691846817834	-0.00376691846817834	-0.00376691846817834	-0.00376691846817834
-0.114022259147421	-0.114022259147421	-0.114022259147421	-0.114022259147421	-0.114022259147421	-0.114022259147421
-0.0985686214030225	-0.0985686214030225	-0.0985686214030225	-0.0985686214030225	-0.0985686214030225	-0.0985686214030225
0.0143953449210948	0.0143953449210948	0.0143953449210948	0.0143953449210948	0.0143953449210948	0.0143953449210948
-0.0399699889919835	-0.0399699889919835	-0.0399699889919835	-0.0399699889919835	-0.0399699889919835	-0.0399699889919835
-0.0638434217198681	-0.0638434217198681	-0.0638434217198681	-0.0638434217198681	-0.0638434217198681	-0.0638434217198681
0.00409612480403437	0.00409612480403437	0.00409612480403437	0.00409612480403437	0.00409612480403437	0.00409612480403437
-0.0876506188721334	-0.0876506188721334	-0.0876506188721334	-0.0876506188721334	-0.0876506188721334	-0.0876506188721334
-0.0874130589463172	-0.0874130589463172	-0.0874130589463172	-0.0874130589463172	-0.0874130589463172	-0.0874130589463172
0.0111381282818878	0.0111381282818878	0.0111381282818878	0.0111381282818878	0.0111381282818878	0.0111381282818878
-0.0999472096714727	-0.0999472096714727	-0.0999472096714727	-0.0999472096714727	-0.0999472096714727	-0.0999472096714727
-0.0226131332718332	-0.0226131332718332	-0.0226131332718332	-0.0226131332718332	-0.0226131332718332	-0.0226131332718332
-0.0836364638074949	-0.0836364638074949	-0.0836364638074949	-0.0836364638074949	-0.0836364638074949	-0.0836364638074949
-0.0930879338981082	-0.0930879338981082	-0.0930879338981082	-0.0930879338981082	-0.0930879338981082	-0.0930879338981082
-0.0206849401801171	-0.0206849401801171	-0.0206849401801171	-0.0206849401801171	-0.0206849401801171	-0.0206849401801171
-0.042059012886614	-0.042059012886614	-0.042059012886614	-0.042059012886614	-0.042059012886614	-0.042059012886614
0.0188909382375394	0.0188909382375394	0.0188909382375394	0.0188909382375394	0.0188909382375394	0.0188909382375394
-0.124849708869522	-0.124849708869522	-0.124849708869522	-0.124849708869522	-0.124849708869522	-0.124849708869522
-0.0611720615665216	-0.0611720615665216	-0.0611720615665216	-0.0611720615665216	-0.0611720615665216	-0.0611720615665216
0.0326070946013521	0.0326070946013521	0.0326070946013521	0.0326070946013521	0.0326070946013521	0.0326070946013521
-0.0408357732758355	-0.0408357732758355	-0.0408357732758355	-0.0408357732758355	-0.0408357732758355	-0.0408357732758355
0.0193200339867754	0.0193200339867754	0.0193200339867754	0.0193200339867754	0.0193200339867754	0.0193200339867754
0.00791995688906606	0.00791995688906606	0.00791995688906606	0.00791995688906606	0.00791995688906606	0.00791995688906606
-0.0536264042113956	-0.0536264042113956	-0.0536264042113956	-0.0536264042113956	-0.0536264042113956	-0.0536264042113956
-0.104036072014493	-0.104036072014493	-0.104036072014493	-0.104036072014493	-0.104036072014493	-0.104036072014493
-0.0179113364672941	-0.0179113364672941	-0.0179113364672941	-0.0179113364672941	-0.0179113364672941	-0.0179113364672941
0.0269505795543981	0.0269505795543981	0.0269505795543981	0.0269505795543981	0.0269505795543981	0.0269505795543981
0.0433501628245043	0.0433501628245043	0.0433501628245043	0.0433501628245043	0.0433501628245043	0.0433501628245043
0.0522700601285675	0.0522700601285675	0.0522700601285675	0.0522700601285675	0.0522700601285675	0.0522700601285675
-0.115366073237887	-0.115366073237887	-0.115366073237887	-0.115366073237887	-0.115366073237887	-0.115366073237887
-0.123168227559053	-0.123168227559053	-0.123168227559053	-0.123168227559053	-0.123168227559053	-0.123168227559053
0.00182868022333013	0.00182868022333013	0.00182868022333013	0.00182868022333013	0.00182868022333013	0.00182868022333013
0.04704970639094	0.04704970639094	0.04704970639094	0.04704970639094	0.04704970639094	0.04704970639094
-0.0211409070475665	-0.0211409070475665	-0.0211409070475665	-0.0211409070475665	-0.0211409070475665	-0.0211409070475665
-0.141140500554438	-0.141140500554438	-0.141140500554438	-0.141140500554438	-0.141140500554438	-0.141140500554438
0.0270254874228494	0.0270254874228494	0.0270254874228494	0.0270254874228494	0.0270254874228494	0.0270254874228494
-0.0295215833389734	-0.0295215833389734	-0.0295215833389734	-0.0295215833389734	-0.0295215833389734	-0.0295215833389734
0.0256650953977571	0.0256650953977571	0.0256650953977571	0.0256650953977571	0.0256650953977571	0.0256650953977571
-0.0429343861880604	-0.0429343861880604	-0.0429343861880604	-0.0429343861880604	-0.0429343861880604	-0.0429343861880604
0.0125606854636801	0.0125606854636801	0.0125606854636801	0.0125606854636801	0.0125606854636801	0.0125606854636801
-0.139189681073426	-0.139189681073426	-0.139189681073426	-0.139189681073426	-0.139189681073426	-0.139189681073426
-0.140686078528604	-0.140686078528604	-0.140686078528604	-0.140686078528604	-0.140686078528604	-0.140686078528604
0.0313282202069692	0.0313282202069692	0.0313282202069692	0.0313282202069692	0.0313282202069692	0.0313282202069692
-0.0172720285906594	-0.0172720285906594	-0.0172720285906594	-0.0172720285906594	-0.0172720285906594	-0.0172720285906594
-0.0501493913096281	-0.0501493913096281	-0.0501493913096281	-0.0501493913096281	-0.0501493913096281	-0.0501493913096281
0.0274118029360905	0.0274118029360905	0.0274118029360905	0.0274118029360905	0.0274118029360905	0.0274118029360905
-0.13255207053599	-0.13255207053599	-0.13255207053599	-0.13255207053599	-0.13255207053599	-0.13255207053599
-0.0392629227874774	-0.0392629227874774	-0.0392629227874774	-0.0392629227874774	-0.0392629227874774	-0.0392629227874774
-0.0762522742497657	-0.0762522742497657	-0.0762522742497657	-0.0762522742497657	-0.0762522742497657	-0.0762522742497657
-0.129845585936598	-0.129845585936598	-0.129845585936598	-0.129845585936598	-0.129845585936598	-0.129845585936598
-0.125115317890412	-0.125115317890412	-0.125115317890412	-0.125115317890412	-0.125115317890412	-0.125115317890412
-0.114587199443116	-0.114587199443116	-0.114587199443116	-0.114587199443116	-0.114587199443116	-0.114587199443116
-0.0447908646077352	-0.0447908646077352	-0.0447908646077352	-0.0447908646077352	-0.0447908646077352	-0.0447908646077352
-0.136362510068118	-0.136362510068118	-0.136362510068118	-0.136362510068118	-0.136362510068118	-0.136362510068118
0.00161950241206153	0.00161950241206153	0.00161950241206153	0.00161950241206153	0.00161950241206153	0.00161950241206153
-0.0409253719877778	-0.0409253719877778	-0.0409253719877778	-0.0409253719877778	-0.0409253719877778	-0.0409253719877778
-0.0534770878257554	-0.0534770878257554	-0.0534770878257554	-0.0534770878257554	-0.0534770878257554	-0.0534770878257554
0.0321641274408569	0.0321641274408569	0.0321641274408569	0.0321641274408569	0.0321641274408569	0.0321641274408569
-0.060597168488753	-0.060597168488753	-0.060597168488753	-0.060597168488753	-0.060597168488753	-0.060597168488753
-0.0593518246907517	-0.0593518246907517	-0.0593518246907517	-0.0593518246907517	-0.0593518246907517	-0.0593518246907517
-0.0409397021912176	-0.0409397021912176	-0.0409397021912176	-0.0409397021912176	-0.0409397021912176	-0.0409397021912176
-0.0816683880129855	-0.0816683880129855	-0.0816683880129855	-0.0816683880129855	-0.0816683880129855	-0.0816683880129855
0.0715455469759579	0.0715455469759579	0.0715455469759579	0.0715455469759579	0.0715455469759579	0.0715455469759579
0.0919084125897987	0.0919084125897987	0.0919084125897987	0.0919084125897987	0.0919084125897987	0.0919084125897987
0.0349516071380176	0.0349516071380176	0.0349516071380176	0.0349516071380176	0.0349516071380176	0.0349516071380176
-0.0625647817584708	-0.0625647817584708	-0.0625647817584708	-0.0625647817584708	-0.0625647817584708	-0.0625647817584708
0.0588957491743572	0.0588957491743572	0.0588957491743572	0.0588957491743572	0.0588957491743572	0.0588957491743572
0.0674941239073842	0.0674941239073842	0.0674941239073842	0.0674941239073842	0.0674941239073842	0.0674941239073842
0.0757065686561983	0.0757065686561983	0.0757065686561983	0.0757065686561983	0.0757065686561983	0.0757065686561983
0.000312253727320189	0.000312253727320189	0.000312253727320189	0.000312253727320189	0.000312253727320189	0.000312253727320189
0.0679613417488415	0.0679613417488415	0.0679613417488415	0.0679613417488415	0.0679613417488415	0.0679613417488415
0.0283379964491574	0.0283379964491574	0.0283379964491574	0.0283379964491574	0.0283379964491574	0.0283379964491574
0.183421408730606	0.183421408730606	0.183421408730606	0.183421408730606	0.183421408730606	0.183421408730606
0.104746155281075	0.104746155281075	0.104746155281075	0.104746155281075	0.104746155281075	0.104746155281075
0.224377657964974	0.224377657964974	0.224377657964974	0.224377657964974	0.224377657964974	0.224377657964974
0.242844840645333	0.242844840645333	0.242844840645333	0.242844840645333	0.242844840645333	0.242844840645333
0.109619072108574	0.109619072108574	0.109619072108574	0.109619072108574	0.109619072108574	0.109619072108574
0.228601542736229	0.228601542736229	0.228601542736229	0.228601542736229	0.228601542736229	0.228601542736229
0.249936028298098	0.249936028298098	0.249936028298098	0.249936028298098	0.249936028298098	0.249936028298098
0.156172537799508	0.156172537799508	0.156172537799508	0.156172537799508	0.156172537799508	0.156172537799508
0.134174080661214	0.134174080661214	0.134174080661214	0.134174080661214	0.134174080661214	0.134174080661214
0.29312451696075	0.29312451696075	0.29312451696075	0.29312451696075	0.29312451696075	0.29312451696075
0.29481343080127	0.29481343080127	0.29481343080127	0.29481343080127	0.29481343080127	0.29481343080127
0.16170942611788	0.16170942611788	0.16170942611788	0.16170942611788	0.16170942611788	0.16170942611788
0.152922065115605	0.152922065115605	0.152922065115605	0.152922065115605	0.152922065115605	0.152922065115605
0.157818542706377	0.157818542706377	0.157818542706377	0.157818542706377	0.157818542706377	0.157818542706377
0.177023209503255	0.177023209503255	0.177023209503255	0.177023209503255	0.177023209503255	0.177023209503255
0.234025238302059	0.234025238302059	0.234025238302059	0.234025238302059	0.234025238302059	0.234025238302059
0.11238637638313	0.11238637638313	0.11238637638313	0.11238637638313	0.11238637638313	0.11238637638313
0.177759983241141	0.177759983241141	0.177759983241141	0.177759983241141	0.177759983241141	0.177759983241141
0.11039249955386	0.11039249955386	0.11039249955386	0.11039249955386	0.11039249955386	0.11039249955386
0.171674474291834	0.171674474291834	0.171674474291834	0.171674474291834	0.171674474291834	0.171674474291834
0.198152134856969	0.198152134856969	0.198152134856969	0.198152134856969	0.198152134856969	0.198152134856969
0.0295060105840195	0.0295060105840195	0.0295060105840195	0.0295060105840195	0.0295060105840195	0.0295060105840195
0.0976129571139979	0.0976129571139979	0.0976129571139979	0.0976129571139979	0.0976129571139979	0.0976129571139979
-0.00445490490395097	-0.00445490490395097	-0.00445490490395097	-0.00445490490395097	-0.00445490490395097	-0.00445490490395097
0.00402522449680694	0.00402522449680694	0.00402522449680694	0.00402522449680694	0.00402522449680694	0.00402522449680694
-0.0480848928997155	-0.0480848928997155	-0.0480848928997155	-0.0480848928997155	-0.0480848928997155	-0.0480848928997155
0.118740289462387	0.118740289462387	0.118740289462387	0.118740289462387	0.118740289462387	0.118740289462387
0.0984891588773264	0.0984891588773264	0.0984891588773264	0.0984891588773264	0.0984891588773264	0.0984891588773264
-0.0624999229635254	-0.0624999229635254	-0.0624999229635254	-0.0624999229635254	-0.0624999229635254	-0.0624999229635254
-0.0503641594208446	-0.0503641594208446	-0.0503641594208446	-0.0503641594208446	-0.0503641594208446	-0.0503641594208446
0.0393105265250214	0.0393105265250214	0.0393105265250214	0.0393105265250214	0.0393105265250214	0.0393105265250214
-0.0925594109101148	-0.0925594109101148	-0.0925594109101148	-0.0925594109101148	-0.0925594109101148	-0.0925594109101148
-0.0429446773102643	-0.0429446773102643	-0.0429446773102643	-0.0429446773102643	-0.0429446773102643	-0.0429446773102643
-0.0928848078008579	-0.0928848078008579	-0.0928848078008579	-0.0928848078008579	-0.0928848078008579	-0.0928848078008579
-0.0418736766813604	-0.0418736766813604	-0.0418736766813604	-0.0418736766813604	-0.0418736766813604	-0.0418736766813604
-0.13146106449829	-0.13146106449829	-0.13146106449829	-0.13146106449829	-0.13146106449829	-0.13146106449829
0.0441852233716037	0.0441852233716037	0.0441852233716037	0.0441852233716037	0.0441852233716037	0.0441852233716037
-0.0899526144047959	-0.0899526144047959	-0.0899526144047959	-0.0899526144047959	-0.0899526144047959	-0.0899526144047959
-0.0546380637035049	-0.0546380637035049	-0.0546380637035049	-0.0546380637035049	-0.0546380637035049	-0.0546380637035049
0.0330385865743156	0.0330385865743156	0.0330385865743156	0.0330385865743156	0.0330385865743156	0.0330385865743156
-0.0358402476698566	-0.0358402476698566	-0.0358402476698566	-0.0358402476698566	-0.0358402476698566	-0.0358402476698566
-0.0288338779338503	-0.0288338779338503	-0.0288338779338503	-0.0288338779338503	-0.0288338779338503	-0.0288338779338503
-0.155162694919091	-0.155162694919091	-0.155162694919091	-0.155162694919091	-0.155162694919091	-0.155162694919091
-0.103499211077775	-0.103499211077775	-0.103499211077775	-0.103499211077775	-0.103499211077775	-0.103499211077775
-0.173000290506757	-0.173000290506757	-0.173000290506757	-0.173000290506757	-0.173000290506757	-0.173000290506757
-0.104535289674362	-0.104535289674362	-0.104535289674362	-0.104535289674362	-0.104535289674362	-0.104535289674362
-0.241690502883232	-0.241690502883232	-0.241690502883232	-0.241690502883232	-0.241690502883232	-0.241690502883232
-0.129031220495524	-0.129031220495524	-0.129031220495524	-0.129031220495524	-0.129031220495524	-0.129031220495524
-0.169729162854043	-0.169729162854043	-0.169729162854043	-0.169729162854043	-0.169729162854043	-0.169729162854043
-0.238478408269408	-0.238478408269408	-0.238478408269408	-0.238478408269408	-0.238478408269408	-0.238478408269408
-0.13581984021018	-0.13581984021018	-0.13581984021018	-0.13581984021018	-0.13581984021018	-0.13581984021018
-0.127170582796008	-0.127170582796008	-0.127170582796008	-0.127170582796008	-0.127170582796008	-0.127170582796008
-0.0817395675158977	-0.0817395675158977	-0.0817395675158977	-0.0817395675158977	-0.0817395675158977	-0.0817395675158977
-0.037522719921426	-0.037522719921426	-0.037522719921426	-0.037522719921426	-0.037522719921426	-0.037522719921426
0.215569720434686	0.215569720434686	0.215569720434686	0.215569720434686	0.215569720434686	0.215569720434686
0.369023884857327	0.369023884857327	0.369023884857327	0.369023884857327	0.369023884857327	0.369023884857327
0.476430386641772	0.476430386641772	0.476430386641772	0.476430386641772	0.476430386641772	0.476430386641772
0.768377955932283	0.768377955932283	0.768377955932283	0.768377955932283	0.768377955932283	0.768377955932283
0.97224244412925	0.97224244412925	0.97224244412925	0.97224244412925	0.97224244412925	0.97224244412925
0.980759332594574	0.980759332594574	0.980759332594574	0.980759332594574	0.980759332594574	0.980759332594574
1.10367492324507	1.10367492324507	1.10367492324507	1.10367492324507	1.10367492324507	1.10367492324507
1.1270705412805	1.1270705412805	1.1270705412805	1.1270705412805	1.1270705412805	1.1270705412805
1.05207999554831	1.05207999554831	1.05207999554831	1.05207999554831	1.05207999554831	1.05207999554831
0.790028724406652	0.790028724406652	0.790028724406652	0.790028724406652	0.790028724406652	0.790028724406652
0.684339413974805	0.684339413974805	0.684339413974805	0.684339413974805	0.684339413974805	0.684339413974805
0.341337003095453	0.341337003095453	0.341337003095453	0.341337003095453	0.341337003095453	0.341337003095453
0.252105550433839	0.252105550433839	0.252105550433839	0.252105550433839	0.252105550433839	0.252105550433839
0.0080595403864935	0.0080595403864935	0.0080595403864935	0.0080595403864935	0.0080595403864935	0.0080595403864935
-0.143203091002179	-0.143203091002179	-0.143203091002179	-0.143203091002179	-0.143203091002179	-0.143203091002179
-0.299179191968512	-0.299179191968512	-0.299179191968512	-0.299179191968512	-0.299179191968512	-0.299179191968512
-0.242938132922492	-0.242938132922492	-0.242938132922492	-0.242938132922492	-0.242938132922492	-0.242938132922492
-0.295584785433623	-0.295584785433623	-0.295584785433623	-0.295584785433623	-0.295584785433623	-0.295584785433623
-0.419988881614241	-0.419988881614241	-0.419988881614241	-0.419988881614241	-0.419988881614241	-0.419988881614241
-0.268115754597501	-0.268115754597501	-0.268115754597501	-0.268115754597501	-0.268115754597501	-0.268115754597501
-0.235784675278281	-0.235784675278281	-0.235784675278281	-0.235784675278281	-0.235784675278281	-0.235784675278281
-0.192157083623112	-0.192157083623112	-0.192157083623112	-0.192157083623112	-0.192157083623112	-0.192157083623112
-0.294783593916872	-0.294783593916872	-0.294783593916872	-0.294783593916872	-0.294783593916872	-0.294783593916872
-0.121704950845018	-0.121704950845018	-0.121704950845018	-0.121704950845018	-0.121704950845018	-0.121704950845018
-0.141900976099971	-0.141900976099971	-0.141900976099971	-0.141900976099971	-0.141900976099971	-0.141900976099971
-0.103683418367741	-0.103683418367741	-0.103683418367741	-0.103683418367741	-0.103683418367741	-0.103683418367741
-0.200576797459361	-0.200576797459361	-0.200576797459361	-0.200576797459361	-0.200576797459361	-0.200576797459361
-0.0117427704319499	-0.0117427704319499	-0.0117427704319499	-0.0117427704319499	-0.0117427704319499	-0.0117427704319499
-0.156208223261654	-0.156208223261654	-0.156208223261654	-0.156208223261654	-0.156208223261654	-0.156208223261654
-0.128338159871683	-0.128338159871683	-0.128338159871683	-0.128338159871683	-0.128338159871683	-0.128338159871683
-0.151357203085252	-0.151357203085252	-0.151357203085252	-0.151357203085252	-0.151357203085252	-0.151357203085252
-0.122424392286743	-0.122424392286743	-0.122424392286743	-0.122424392286743	-0.122424392286743	-0.122424392286743
-0.0101639680003171	-0.0101639680003171	-0.0101639680003171	-0.0101639680003171	-0.0101639680003171	-0.0101639680003171
-0.0938099347811452	-0.0938099347811452	-0.0938099347811452	-0.0938099347811452	-0.0938099347811452	-0.0938099347811452
-0.166236707949161	-0.166236707949161	-0.166236707949161	-0.166236707949161	-0.166236707949161	-0.166236707949161
-0.133298753058993	-0.133298753058993	-0.133298753058993	-0.133298753058993	-0.133298753058993	-0.133298753058993
-0.0715927700790607	-0.0715927700790607	-0.0715927700790607	-0.0715927700790607	-0.0715927700790607	-0.0715927700790607
-0.0826740171350722	-0.0826740171350722	-0.0826740171350722	-0.0826740171350722	-0.0826740171350722	-0.0826740171350722
-0.126468411750415	-0.126468411750415	-0.126468411750415	-0.126468411750415	-0.126468411750415	-0.126468411750415
-0.0596774260696643	-0.0596774260696643	-0.0596774260696643	-0.0596774260696643	-0.0596774260696643	-0.0596774260696643
-0.160195881028568	-0.160195881028568	-0.160195881028568	-0.160195881028568	-0.160195881028568	-0.160195881028568
-0.0177432107955343	-0.0177432107955343	-0.0177432107955343	-0.0177432107955343	-0.0177432107955343	-0.0177432107955343
0.0115812671165071	0.0115812671165071	0.0115812671165071	0.0115812671165071	0.0115812671165071	0.0115812671165071
-0.141907049114402	-0.141907049114402	-0.141907049114402	-0.141907049114402	-0.141907049114402	-0.141907049114402
-0.0774478976267268	-0.0774478976267268	-0.0774478976267268	-0.0774478976267268	-0.0774478976267268	-0.0774478976267268
-0.0227343146595872	-0.0227343146595872	-0.0227343146595872	-0.0227343146595872	-0.0227343146595872	-0.0227343146595872
-0.0096967516726196	-0.0096967516726196	-0.0096967516726196	-0.0096967516726196	-0.0096967516726196	-0.0096967516726196
-0.0241812408445352	-0.0241812408445352	-0.0241812408445352	-0.0241812408445352	-0.0241812408445352	-0.0241812408445352
-0.0929246872596978	-0.0929246872596978	-0.0929246872596978	-0.0929246872596978	-0.0929246872596978	-0.0929246872596978
-0.0215023250019537	-0.0215023250019537	-0.0215023250019537	-0.0215023250019537	-0.0215023250019537	-0.0215023250019537
-0.0619185557102847	-0.0619185557102847	-0.0619185557102847	-0.0619185557102847	-0.0619185557102847	-0.0619185557102847
0.0569499059150087	0.0569499059150087	0.0569499059150087	0.0569499059150087	0.0569499059150087	0.0569499059150087
-0.0432974997662367	-0.0432974997662367	-0.0432974997662367	-0.0432974997662367	-0.0432974997662367	-0.0432974997662367
0.0491468029490435	0.0491468029490435	0.0491468029490435	0.0491468029490435	0.0491468029490435	0.0491468029490435
0.00378369718201571	0.00378369718201571	0.00378369718201571	0.00378369718201571	0.00378369718201571	0.00378369718201571
0.099687129038445	0.099687129038445	0.099687129038445	0.099687129038445	0.099687129038445	0.099687129038445
0.0540005653633203	0.0540005653633203	0.0540005653633203	0.0540005653633203	0.0540005653633203	0.0540005653633203
0.0610393888526942	0.0610393888526942	0.0610393888526942	0.0610393888526942	0.0610393888526942	0.0610393888526942
0.190349694725318	0.190349694725318	0.190349694725318	0.190349694725318	0.190349694725318	0.190349694725318
0.165720102567759	0.165720102567759	0.165720102567759	0.165720102567759	0.165720102567759	0.165720102567759
0.189518307394866	0.189518307394866	0.189518307394866	0.189518307394866	0.189518307394866	0.189518307394866
0.0949410091983705	0.0949410091983705	0.0949410091983705	0.0949410091983705	0.0949410091983705	0.0949410091983705
0.217045199149051	0.217045199149051	0.217045199149051	0.217045199149051	0.217045199149051	0.217045199149051
0.218695696854185	0.218695696854185	0.218695696854185	0.218695696854185	0.218695696854185	0.218695696854185
0.266249342451586	0.266249342451586	0.266249342451586	0.266249342451586	0.266249342451586	0.266249342451586
0.178778123851654	0.178778123851654	0.178778123851654	0.178778123851654	0.178778123851654	0.178778123851654
0.254037136817343	0.254037136817343	0.254037136817343	0.254037136817343	0.254037136817343	0.254037136817343
0.209366661807233	0.209366661807233	0.209366661807233	0.209366661807233	0.209366661807233	0.209366661807233
0.332672727612693	0.332672727612693	0.332672727612693	0.332672727612693	0.332672727612693	0.332672727612693
0.226331733691937	0.226331733691937	0.226331733691937	0.226331733691937	0.226331733691937	0.226331733691937
0.273810006394864	0.273810006394864	0.273810006394864	0.273810006394864	0.273810006394864	0.273810006394864
0.244982413872249	0.244982413872249	0.244982413872249	0.244982413872249	0.244982413872249	0.244982413872249
0.4174468072395	0.4174468072395	0.4174468072395	0.4174468072395	0.4174468072395	0.4174468072395
0.332032854100308	0.332032854100308	0.332032854100308	0.332032854100308	0.332032854100308	0.332032854100308
0.43449998613226	0.43449998613226	0.43449998613226	0.43449998613226	0.43449998613226	0.43449998613226
0.373398467411415	0.373398467411415	0.373398467411415	0.373398467411415	0.373398467411415	0.373398467411415
0.271360695397781	0.271360695397781	0.271360695397781	0.271360695397781	0.271360695397781	0.271360695397781
0.414576684443193	0.414576684443193	0.414576684443193	0.414576684443193	0.414576684443193	0.414576684443193
0.425462718527337	0.425462718527337	0.425462718527337	0.425462718527337	0.425462718527337	0.425462718527337
0.344700010220034	0.344700010220034	0.344700010220034	0.344700010220034	0.344700010220034	0.344700010220034
0.266089549132291	0.266089549132291	0.266089549132291	0.266089549132291	0.266089549132291	0.266089549132291
0.253008971378955	0.253008971378955	0.253008971378955	0.253008971378955	0.253008971378955	0.253008971378955
0.384946493361967	0.384946493361967	0.384946493361967	0.384946493361967	0.384946493361967	0.384946493361967
0.318440810532418	0.318440810532418	0.318440810532418	0.318440810532418	0.318440810532418	0.318440810532418
0.291096211173868	0.291096211173868	0.291096211173868	0.291096211173868	0.291096211173868	0.291096211173868
0.358560468702646	0.358560468702646	0.358560468702646	0.358560468702646	0.358560468702646	0.358560468702646
0.313866944313045	0.313866944313045	0.313866944313045	0.313866944313045	0.313866944313045	0.313866944313045
0.19785785131138	0.19785785131138	0.19785785131138	0.19785785131138	0.19785785131138	0.19785785131138
0.212916630045285	0.212916630045285	0.212916630045285	0.212916630045285	0.212916630045285	0.212916630045285
0.238602703386833	0.238602703386833	0.238602703386833	0.238602703386833	0.238602703386833	0.238602703386833
0.185054881552446	0.185054881552446	0.185054881552446	0.185054881552446	0.185054881552446	0.185054881552446
0.256567885298736	0.256567885298736	0.256567885298736	0.256567885298736	0.256567885298736	0.256567885298736
0.201394806763094	0.201394806763094	0.201394806763094	0.201394806763094	0.201394806763094	0.201394806763094
0.0881183266552931	0.0881183266552931	0.0881183266552931	0.0881183266552931	0.0881183266552931	0.0881183266552931
0.169243609000973	0.169243609000973	0.169243609000973	0.169243609000973	0.169243609000973	0.169243609000973
0.117115853102437	0.117115853102437	0.117115853102437	0.117115853102437	0.117115853102437	0.117115853102437
0.16867295648339	0.16867295648339	0.16867295648339	0.16867295648339	0.16867295648339	0.16867295648339
0.0249198533526577	0.0249198533526577	0.0249198533526577	0.0249198533526577	0.0249198533526577	0.0249198533526577
0.0249310656905388	0.0249310656905388	0.0249310656905388	0.0249310656905388	0.0249310656905388	0.0249310656905388
0.0917413756521249	0.0917413756521249	0.0917413756521249	0.0917413756521249	0.0917413756521249	0.0917413756521249
-0.0212957773417291	-0.0212957773417291	-0.0212957773417291	-0.0212957773417291	-0.0212957773417291	-0.0212957773417291
0.0685877294753835	0.0685877294753835	0.0685877294753835	0.0685877294753835	0.0685877294753835	0.0685877294753835
-0.0586004868944109	-0.0586004868944109	-0.0586004868944109	-0.0586004868944109	-0.0586004868944109	-0.0586004868944109
-0.0924862749363726	-0.0924862749363726	-0.0924862749363726	-0.0924862749363726	-0.0924862749363726	-0.0924862749363726
-0.0519635852684268	-0.0519635852684268	-0.0519635852684268	-0.0519635852684268	-0.0519635852684268	-0.0519635852684268
-0.14077228096951	-0.14077228096951	-0.14077228096951	-0.14077228096951	-0.14077228096951	-0.14077228096951
-0.00955682105849986	-0.00955682105849986	-0.00955682105849986	-0.00955682105849986	-0.00955682105849986	-0.00955682105849986
-0.0216928037485039	-0.0216928037485039	-0.0216928037485039	-0.0216928037485039	-0.0216928037485039	-0.0216928037485039
-0.145313884774881	-0.145313884774881	-0.145313884774881	-0.145313884774881	-0.145313884774881	-0.145313884774881
-0.108911337758171	-0.108911337758171	-0.108911337758171	-0.108911337758171	-0.108911337758171	-0.108911337758171
-0.157446060141038	-0.157446060141038	-0.157446060141038	-0.157446060141038	-0.157446060141038	-0.157446060141038
-0.167076710232982	-0.167076710232982	-0.167076710232982	-0.167076710232982	-0.167076710232982	-0.167076710232982
-0.184101932554709	-0.184101932554709	-0.184101932554709	-0.184101932554709	-0.184101932554709	-0.184101932554709
-0.0506904309053336	-0.0506904309053336	-0.0506904309053336	-0.0506904309053336	-0.0506904309053336	-0.0506904309053336
-0.157900915204321	-0.157900915204321	-0.157900915204321	-0.157900915204321	-0.157900915204321	-0.157900915204321
-0.12580897458266	-0.12580897458266	-0.12580897458266	-0.12580897458266	-0.12580897458266	-0.12580897458266
-0.198662937119345	-0.198662937119345	-0.198662937119345	-0.198662937119345	-0.198662937119345	-0.198662937119345
-0.193101706632094	-0.193101706632094	-0.193101706632094	-0.193101706632094	-0.193101706632094	-0.193101706632094
-0.177890183493319	-0.177890183493319	-0.177890183493319	-0.177890183493319	-0.177890183493319	-0.177890183493319
-0.199609078297918	-0.199609078297918	-0.199609078297918	-0.199609078297918	-0.199609078297918	-0.199609078297918
-0.15763198288256	-0.15763198288256	-0.15763198288256	-0.15763198288256	-0.15763198288256	-0.15763198288256
-0.0843156601369353	-0.0843156601369353	-0.0843156601369353	-0.0843156601369353	-0.0843156601369353	-0.0843156601369353
-0.093919577898724	-0.093919577898724	-0.093919577898724	-0.093919577898724	-0.093919577898724	-0.093919577898724
-0.158365799762016	-0.158365799762016	-0.158365799762016	-0.158365799762016	-0.158365799762016	-0.158365799762016
-0.225285383059892	-0.225285383059892	-0.225285383059892	-0.225285383059892	-0.225285383059892	-0.225285383059892
-0.119352833814091	-0.119352833814091	-0.119352833814091	-0.119352833814091	-0.119352833814091	-0.119352833814091
-0.220074611550027	-0.220074611550027	-0.220074611550027	-0.220074611550027	-0.220074611550027	-0.220074611550027
-0.197405152196045	-0.197405152196045	-0.197405152196045	-0.197405152196045	-0.197405152196045	-0.197405152196045
-0.164087373956686	-0.164087373956686	-0.164087373956686	-0.164087373956686	-0.164087373956686	-0.164087373956686
-0.0364033107010155	-0.0364033107010155	-0.0364033107010155	-0.0364033107010155	-0.0364033107010155	-0.0364033107010155
-0.0849654404126525	-0.0849654404126525	-0.0849654404126525	-0.0849654404126525	-0.0849654404126525	-0.0849654404126525
-0.171057382351248	-0.171057382351248	-0.171057382351248	-0.171057382351248	-0.171057382351248	-0.171057382351248
-0.0352018997259645	-0.0352018997259645	-0.0352018997259645	-0.0352018997259645	-0.0352018997259645	-0.0352018997259645
-0.160164478204914	-0.160164478204914	-0.160164478204914	-0.160164478204914	-0.160164478204914	-0.160164478204914
-0.0865252112600371	-0.0865252112600371	-0.0865252112600371	-0.0865252112600371	-0.0865252112600371	-0.0865252112600371
-0.172973143059896	-0.172973143059896	-0.172973143059896	-0.172973143059896	-0.172973143059896	-0.172973143059896
-0.228282821924576	-0.228282821924576	-0.228282821924576	-0.228282821924576	-0.228282821924576	-0.228282821924576
-0.188939335764968	-0.188939335764968	-0.188939335764968	-0.188939335764968	-0.188939335764968	-0.188939335764968
-0.176505286205785	-0.176505286205785	-0.176505286205785	-0.176505286205785	-0.176505286205785	-0.176505286205785
-0.184892610676179	-0.184892610676179	-0.184892610676179	-0.184892610676179	-0.184892610676179	-0.184892610676179
-0.0718935233543475	-0.0718935233543475	-0.0718935233543475	-0.0718935233543475	-0.0718935233543475	-0.0718935233543475
-0.151953963455755	-0.151953963455755	-0.151953963455755	-0.151953963455755	-0.151953963455755	-0.151953963455755
-0.140396531787534	-0.140396531787534	-0.140396531787534	-0.140396531787534	-0.140396531787534	-0.140396531787534
-0.0943617625636061	-0.0943617625636061	-0.0943617625636061	-0.0943617625636061	-0.0943617625636061	-0.0943617625636061
-0.180376613495784	-0.180376613495784	-0.180376613495784	-0.180376613495784	-0.180376613495784	-0.180376613495784
-0.10362181286911	-0.10362181286911	-0.10362181286911	-0.10362181286911	-0.10362181286911	-0.10362181286911
-0.17582978961629	-0.17582978961629	-0.17582978961629	-0.17582978961629	-0.17582978961629	-0.17582978961629
-0.0956587509560724	-0.0956587509560724	-0.0956587509560724	-0.0956587509560724	-0.0956587509560724	-0.0956587509560724
-0.196142428435103	-0.196142428435103	-0.196142428435103	-0.196142428435103	-0.196142428435103	-0.196142428435103
-0.125326283187173	-0.125326283187173	-0.125326283187173	-0.125326283187173	-0.125326283187173	-0.125326283187173
-0.20797459580918	-0.20797459580918	-0.20797459580918	-0.20797459580918	-0.20797459580918	-0.20797459580918
-0.118640548932924	-0.118640548932924	-0.118640548932924	-0.118640548932924	-0.118640548932924	-0.118640548932924
-0.117536362193919	-0.117536362193919	-0.117536362193919	-0.117536362193919	-0.117536362193919	-0.117536362193919
-0.0367357878135347	-0.0367357878135347	-0.0367357878135347	-0.0367357878135347	-0.0367357878135347	-0.0367357878135347
-0.218382278781844	-0.218382278781844	-0.218382278781844	-0.218382278781844	-0.218382278781844	-0.218382278781844
-0.0307813149506515	-0.0307813149506515	-0.0307813149506515	-0.0307813149506515	-0.0307813149506515	-0.0307813149506515
-0.0616088080756039	-0.0616088080756039	-0.0616088080756039	-0.0616088080756039	-0.0616088080756039	-0.0616088080756039
-0.0788315314392657	-0.0788315314392657	-0.0788315314392657	-0.0788315314392657	-0.0788315314392657	-0.0788315314392657
-0.048509951669208	-0.048509951669208	-0.048509951669208	-0.048509951669208	-0.048509951669208	-0.048509951669208
-0.0834146362804107	-0.0834146362804107	-0.0834146362804107	-0.0834146362804107	-0.0834146362804107	-0.0834146362804107
-0.163903541478152	-0.163903541478152	-0.163903541478152	-0.163903541478152	-0.163903541478152	-0.163903541478152
-0.137400515558712	-0.137400515558712	-0.137400515558712	-0.137400515558712	-0.137400515558712	-0.137400515558712
-0.156516214329073	-0.156516214329073	-0.156516214329073	-0.156516214329073	-0.156516214329073	-0.156516214329073
-0.184444507538267	-0.184444507538267	-0.184444507538267	-0.184444507538267	-0.184444507538267	-0.184444507538267
-0.152536636856715	-0.152536636856715	-0.152536636856715	-0.152536636856715	-0.152536636856715	-0.152536636856715
-0.164766618607119	-0.164766618607119	-0.164766618607119	-0.164766618607119	-0.164766618607119	-0.164766618607119
-0.101992465057298	-0.101992465057298	-0.101992465057298	-0.101992465057298	-0.101992465057298	-0.101992465057298
-0.0549940412527072	-0.0549940412527072	-0.0549940412527072	-0.0549940412527072	-0.0549940412527072	-0.0549940412527072
-0.171489019682513	-0.171489019682513	-0.171489019682513	-0.171489019682513	-0.171489019682513	-0.171489019682513
-0.0577812217640362	-0.0577812217640362	-0.0577812217640362	-0.0577812217640362	-0.0577812217640362	-0.0577812217640362
-0.124327078826378	-0.124327078826378	-0.124327078826378	-0.124327078826378	-0.124327078826378	-0.124327078826378
-0.134390869580241	-0.134390869580241	-0.134390869580241	-0.134390869580241	-0.134390869580241	-0.134390869580241
-0.0964416104480727	-0.0964416104480727	-0.0964416104480727	-0.0964416104480727	-0.0964416104480727	-0.0964416104480727
-0.067615387569811	-0.067615387569811	-0.067615387569811	-0.067615387569811	-0.067615387569811	-0.067615387569811
-0.0343910310247355	-0.0343910310247355	-0.0343910310247355	-0.0343910310247355	-0.0343910310247355	-0.0343910310247355
-0.0773624015160749	-0.0773624015160749	-0.0773624015160749	-0.0773624015160749	-0.0773624015160749	-0.0773624015160749
-0.114716883623532	-0.114716883623532	-0.114716883623532	-0.114716883623532	-0.114716883623532	-0.114716883623532
-0.129956792175971	-0.129956792175971	-0.129956792175971	-0.129956792175971	-0.129956792175971	-0.129956792175971
-0.123774101435357	-0.123774101435357	-0.123774101435357	-0.123774101435357	-0.123774101435357	-0.123774101435357
-0.0573198512502149	-0.0573198512502149	-0.0573198512502149	-0.0573198512502149	-0.0573198512502149	-0.0573198512502149
-0.127347701072649	-0.127347701072649	-0.127347701072649	-0.127347701072649	-0.127347701072649	-0.127347701072649
-0.14352415190272	-0.14352415190272	-0.14352415190272	-0.14352415190272	-0.14352415190272	-0.14352415190272
-0.106320660887741	-0.106320660887741	-0.106320660887741	-0.106320660887741	-0.106320660887741	-0.106320660887741
-0.0265591331736677	-0.0265591331736677	-0.0265591331736677	-0.0265591331736677	-0.0265591331736677	-0.0265591331736677
-0.0700789614000575	-0.0700789614000575	-0.0700789614000575	-0.0700789614000575	-0.0700789614000575	-0.0700789614000575
-0.100771937139106	-0.100771937139106	-0.100771937139106	-0.100771937139106	-0.100771937139106	-0.100771937139106
-0.00425022902153745	-0.00425022902153745	-0.00425022902153745	-0.00425022902153745	-0.00425022902153745	-0.00425022902153745
-0.0944624564961969	-0.0944624564961969	-0.0944624564961969	-0.0944624564961969	-0.0944624564961969	-0.0944624564961969
-0.0960725963418979	-0.0960725963418979	-0.0960725963418979	-0.0960725963418979	-0.0960725963418979	-0.0960725963418979
0.018344848670696	0.018344848670696	0.018344848670696	0.018344848670696	0.018344848670696	0.018344848670696
-0.040666482970406	-0.040666482970406	-0.040666482970406	-0.040666482970406	-0.040666482970406	-0.040666482970406
-0.0125521685036441	-0.0125521685036441	-0.0125521685036441	-0.0125521685036441	-0.0125521685036441	-0.0125521685036441
-0.137099747668492	-0.137099747668492	-0.137099747668492	-0.137099747668492	-0.137099747668492	-0.137099747668492
-0.0660178744914734	-0.0660178744914734	-0.0660178744914734	-0.0660178744914734	-0.0660178744914734	-0.0660178744914734
0.0466298846545419	0.0466298846545419	0.0466298846545419	0.0466298846545419	0.0466298846545419	0.0466298846545419
-0.0597002293107903	-0.0597002293107903	-0.0597002293107903	-0.0597002293107903	-0.0597002293107903	-0.0597002293107903
-0.0092106975267269	-0.0092106975267269	-0.0092106975267269	-0.0092106975267269	-0.0092106975267269	-0.0092106975267269
0.10716706060692	0.10716706060692	0.10716706060692	0.10716706060692	0.10716706060692	0.10716706060692
0.0705630760438224	0.0705630760438224	0.0705630760438224	0.0705630760438224	0.0705630760438224	0.0705630760438224
-0.0326240751550086	-0.0326240751550086	-0.0326240751550086	-0.0326240751550086	-0.0326240751550086	-0.0326240751550086
0.150021488799135	0.150021488799135	0.150021488799135	0.150021488799135	0.150021488799135	0.150021488799135
0.174022158884568	0.174022158884568	0.174022158884568	0.174022158884568	0.174022158884568	0.174022158884568
0.00335760365506256	0.00335760365506256	0.00335760365506256	0.00335760365506256	0.00335760365506256	0.00335760365506256
0.209675100060137	0.209675100060137	0.209675100060137	0.209675100060137	0.209675100060137	0.209675100060137
0.186835188689874	0.186835188689874	0.186835188689874	0.186835188689874	0.186835188689874	0.186835188689874
0.122343051611494	0.122343051611494	0.122343051611494	0.122343051611494	0.122343051611494	0.122343051611494
0.0961836903195297	0.0961836903195297	0.0961836903195297	0.0961836903195297	0.0961836903195297	0.0961836903195297
0.179205211535674	0.179205211535674	0.179205211535674	0.179205211535674	0.179205211535674	0.179205211535674
0.202477559789108	0.202477559789108	0.202477559789108	0.202477559789108	0.202477559789108	0.202477559789108
0.153857986750089	0.153857986750089	0.153857986750089	0.153857986750089	0.153857986750089	0.153857986750089
0.264897469672504	0.264897469672504	0.264897469672504	0.264897469672504	0.264897469672504	0.264897469672504
0.271740786530225	0.271740786530225	0.271740786530225	0.271740786530225	0.271740786530225	0.271740786530225
0.216194582928797	0.216194582928797	0.216194582928797	0.216194582928797	0.216194582928797	0.216194582928797
0.151988434942699	0.151988434942699	0.151988434942699	0.151988434942699	0.151988434942699	0.151988434942699
0.130083704583816	0.130083704583816	0.130083704583816	0.130083704583816	0.130083704583816	0.130083704583816
0.236965698343713	0.236965698343713	0.236965698343713	0.236965698343713	0.236965698343713	0.236965698343713
0.186772246589236	0.186772246589236	0.186772246589236	0.186772246589236	0.186772246589236	0.186772246589236
0.166801683385287	0.166801683385287	0.166801683385287	0.166801683385287	0.166801683385287	0.166801683385287
0.17941043708557	0.17941043708557	0.17941043708557	0.17941043708557	0.17941043708557	0.17941043708557
0.0967468320614042	0.0967468320614042	0.0967468320614042	0.0967468320614042	0.0967468320614042	0.0967468320614042
0.0726801387396994	0.0726801387396994	0.0726801387396994	0.0726801387396994	0.0726801387396994	0.0726801387396994
0.0995724070614959	0.0995724070614959	0.0995724070614959	0.0995724070614959	0.0995724070614959	0.0995724070614959
0.0591602095784347	0.0591602095784347	0.0591602095784347	0.0591602095784347	0.0591602095784347	0.0591602095784347
0.0526913397541884	0.0526913397541884	0.0526913397541884	0.0526913397541884	0.0526913397541884	0.0526913397541884
-0.0278527213139547	-0.0278527213139547	-0.0278527213139547	-0.0278527213139547	-0.0278527213139547	-0.0278527213139547
0.0787073684563714	0.0787073684563714	0.0787073684563714	0.0787073684563714	0.0787073684563714	0.0787073684563714
0.0761615481774584	0.0761615481774584	0.0761615481774584	0.0761615481774584	0.0761615481774584	0.0761615481774584
0.038439603725143	0.038439603725143	0.038439603725143	0.038439603725143	0.038439603725143	0.038439603725143
-0.057795453205062	-0.057795453205062	-0.057795453205062	-0.057795453205062	-0.057795453205062	-0.057795453205062
-0.0472162648783732	-0.0472162648783732	-0.0472162648783732	-0.0472162648783732	-0.0472162648783732	-0.0472162648783732
0.00402310258665716	0.00402310258665716	0.00402310258665716	0.00402310258665716	0.00402310258665716	0.00402310258665716
-0.114795338532103	-0.114795338532103	-0.114795338532103	-0.114795338532103	-0.114795338532103	-0.114795338532103
-0.146737378015987	-0.146737378015987	-0.146737378015987	-0.146737378015987	-0.146737378015987	-0.146737378015987
-0.0157256503140226	-0.0157256503140226	-0.0157256503140226	-0.0157256503140226	-0.0157256503140226	-0.0157256503140226
-0.0499513604467272	-0.0499513604467272	-0.0499513604467272	-0.0499513604467272	-0.0499513604467272	-0.0499513604467272
-0.144632986766876	-0.144632986766876	-0.144632986766876	-0.144632986766876	-0.144632986766876	-0.144632986766876
0.0075919272826289	0.0075919272826289	0.0075919272826289	0.0075919272826289	0.0075919272826289	0.0075919272826289
-0.118289743471855	-0.118289743471855	-0.118289743471855	-0.118289743471855	-0.118289743471855	-0.118289743471855
-0.185665496808899	-0.185665496808899	-0.185665496808899	-0.185665496808899	-0.185665496808899	-0.185665496808899
-0.106113150284056	-0.106113150284056	-0.106113150284056	-0.106113150284056	-0.106113150284056	-0.106113150284056
-0.0587817306705815	-0.0587817306705815	-0.0587817306705815	-0.0587817306705815	-0.0587817306705815	-0.0587817306705815
-0.079572840758802	-0.079572840758802	-0.079572840758802	-0.079572840758802	-0.079572840758802	-0.079572840758802
-0.076776638781932	-0.076776638781932	-0.076776638781932	-0.076776638781932	-0.076776638781932	-0.076776638781932
-0.137068262389666	-0.137068262389666	-0.137068262389666	-0.137068262389666	-0.137068262389666	-0.137068262389666
-0.170756905076149	-0.170756905076149	-0.170756905076149	-0.170756905076149	-0.170756905076149	-0.170756905076149
-0.22121084297451	-0.22121084297451	-0.22121084297451	-0.22121084297451	-0.22121084297451	-0.22121084297451
-0.249027549690567	-0.249027549690567	-0.249027549690567	-0.249027549690567	-0.249027549690567	-0.249027549690567
-0.255058728543542	-0.255058728543542	-0.255058728543542	-0.255058728543542	-0.255058728543542	-0.255058728543542
-0.243434715863596	-0.243434715863596	-0.243434715863596	-0.243434715863596	-0.243434715863596	-0.243434715863596
-0.317848434896677	-0.317848434896677	-0.317848434896677	-0.317848434896677	-0.317848434896677	-0.317848434896677
-0.196296305118964	-0.196296305118964	-0.196296305118964	-0.196296305118964	-0.196296305118964	-0.196296305118964
-0.239888166514828	-0.239888166514828	-0.239888166514828	-0.239888166514828	-0.239888166514828	-0.239888166514828
-0.104278647513887	-0.104278647513887	-0.104278647513887	-0.104278647513887	-0.104278647513887	-0.104278647513887
-0.121612719638991	-0.121612719638991	-0.121612719638991	-0.121612719638991	-0.121612719638991	-0.121612719638991
0.19488838224604	0.19488838224604	0.19488838224604	0.19488838224604	0.19488838224604	0.19488838224604
0.293296814117261	0.293296814117261	0.293296814117261	0.293296814117261	0.293296814117261	0.293296814117261
0.435407691255895	0.435407691255895	0.435407691255895	0.435407691255895	0.435407691255895	0.435407691255895
0.663293745089627	0.663293745089627	0.663293745089627	0.663293745089627	0.663293745089627	0.663293745089627
0.865206568350883	0.865206568350883	0.865206568350883	0.865206568350883	0.865206568350883	0.865206568350883
1.00162100972125	1.00162100972125	1.00162100972125	1.00162100972125	1.00162100972125	1.00162100972125
1.13147161527288	1.13147161527288	1.13147161527288	1.13147161527288	1.13147161527288	1.13147161527288
1.08778311814765	1.08778311814765	1.08778311814765	1.08778311814765	1.08778311814765	1.08778311814765
1.03734218111636	1.03734218111636	1.03734218111636	1.03734218111636	1.03734218111636	1.03734218111636
0.853982893238433	0.853982893238433	0.853982893238433	0.853982893238433	0.853982893238433	0.853982893238433
0.623495046162239	0.623495046162239	0.623495046162239	0.623495046162239	0.623495046162239	0.623495046162239
0.481383100109535	0.481383100109535	0.481383100109535	0.481383100109535	0.481383100109535	0.481383100109535
0.291039096558686	0.291039096558686	0.291039096558686	0.291039096558686	0.291039096558686	0.291039096558686
0.08239022906296	0.08239022906296	0.08239022906296	0.08239022906296	0.08239022906296	0.08239022906296
-0.138484025877003	-0.138484025877003	-0.138484025877003	-0.138484025877003	-0.138484025877003	-0.138484025877003
-0.328175506637461	-0.328175506637461	-0.328175506637461	-0.328175506637461	-0.328175506637461	-0.328175506637461
-0.30493391524508	-0.30493391524508	-0.30493391524508	-0.30493391524508	-0.30493391524508	-0.30493391524508
-0.417954106696767	-0.417954106696767	-0.417954106696767	-0.417954106696767	-0.417954106696767	-0.417954106696767
-0.442502652118429	-0.442502652118429	-0.442502652118429	-0.442502652118429	-0.442502652118429	-0.442502652118429
-0.296886057251879	-0.296886057251879	-0.296886057251879	-0.296886057251879	-0.296886057251879	-0.296886057251879
-0.339591549517596	-0.339591549517596	-0.339591549517596	-0.339591549517596	-0.339591549517596	-0.339591549517596
-0.304673218809831	-0.304673218809831	-0.304673218809831	-0.304673218809831	-0.304673218809831	-0.304673218809831
-0.294188118945749	-0.294188118945749	-0.294188118945749	-0.294188118945749	-0.294188118945749	-0.294188118945749
-0.223228592185021	-0.223228592185021	-0.223228592185021	-0.223228592185021	-0.223228592185021	-0.223228592185021
-0.22697276135378	-0.22697276135378	-0.22697276135378	-0.22697276135378	-0.22697276135378	-0.22697276135378
-0.0577923768710494	-0.0577923768710494	-0.0577923768710494	-0.0577923768710494	-0.0577923768710494	-0.0577923768710494
-0.0614276711972737	-0.0614276711972737	-0.0614276711972737	-0.0614276711972737	-0.0614276711972737	-0.0614276711972737
-0.0319375678891186	-0.0319375678891186	-0.0319375678891186	-0.0319375678891186	-0.0319375678891186	-0.0319375678891186
0.00941619979094993	0.00941619979094993	0.00941619979094993	0.00941619979094993	0.00941619979094993	0.00941619979094993
-0.0646881972568004	-0.0646881972568004	-0.0646881972568004	-0.0646881972568004	-0.0646881972568004	-0.0646881972568004
-0.171512438364975	-0.171512438364975	-0.171512438364975	-0.171512438364975	-0.171512438364975	-0.171512438364975
-0.146987120882349	-0.146987120882349	-0.146987120882349	-0.146987120882349	-0.146987120882349	-0.146987120882349
-0.0510284171859058	-0.0510284171859058	-0.0510284171859058	-0.0510284171859058	-0.0510284171859058	-0.0510284171859058
0.0113743254090711	0.0113743254090711	0.0113743254090711	0.0113743254090711	0.0113743254090711	0.0113743254090711
-0.128026323920553	-0.128026323920553	-0.128026323920553	-0.128026323920553	-0.128026323920553	-0.128026323920553
-0.155274336046963	-0.155274336046963	-0.155274336046963	-0.155274336046963	-0.155274336046963	-0.155274336046963
-0.112783993567805	-0.112783993567805	-0.112783993567805	-0.112783993567805	-0.112783993567805	-0.112783993567805
-0.104132039186323	-0.104132039186323	-0.104132039186323	-0.104132039186323	-0.104132039186323	-0.104132039186323
0.0392655437621506	0.0392655437621506	0.0392655437621506	0.0392655437621506	0.0392655437621506	0.0392655437621506
-0.0517298571683542	-0.0517298571683542	-0.0517298571683542	-0.0517298571683542	-0.0517298571683542	-0.0517298571683542
-0.12827672979569	-0.12827672979569	-0.12827672979569	-0.12827672979569	-0.12827672979569	-0.12827672979569
-0.0545033596580666	-0.0545033596580666	-0.0545033596580666	-0.0545033596580666	-0.0545033596580666	-0.0545033596580666
-0.0704733633291915	-0.0704733633291915	-0.0704733633291915	-0.0704733633291915	-0.0704733633291915	-0.0704733633291915
0.0236701286488184	0.0236701286488184	0.0236701286488184	0.0236701286488184	0.0236701286488184	0.0236701286488184
-0.00228751178714711	-0.00228751178714711	-0.00228751178714711	-0.00228751178714711	-0.00228751178714711	-0.00228751178714711
-0.00532430833701772	-0.00532430833701772	-0.00532430833701772	-0.00532430833701772	-0.00532430833701772	-0.00532430833701772
0.00810062268350444	0.00810062268350444	0.00810062268350444	0.00810062268350444	0.00810062268350444	0.00810062268350444
-0.0112303823610898	-0.0112303823610898	-0.0112303823610898	-0.0112303823610898	-0.0112303823610898	-0.0112303823610898
0.0924341711500512	0.0924341711500512	0.0924341711500512	0.0924341711500512	0.0924341711500512	0.0924341711500512
-0.0255927378991379	-0.0255927378991379	-0.0255927378991379	-0.0255927378991379	-0.0255927378991379	-0.0255927378991379
0.0285224593554882	0.0285224593554882	0.0285224593554882	0.0285224593554882	0.0285224593554882	0.0285224593554882
0.0105641588988512	0.0105641588988512	0.0105641588988512	0.0105641588988512	0.0105641588988512	0.0105641588988512
0.0816339766361556	0.0816339766361556	0.0816339766361556	0.0816339766361556	0.0816339766361556	0.0816339766361556
0.142656522996569	0.142656522996569	0.142656522996569	0.142656522996569	0.142656522996569	0.142656522996569
0.0562225484132072	0.0562225484132072	0.0562225484132072	0.0562225484132072	0.0562225484132072	0.0562225484132072
0.0800861897377786	0.0800861897377786	0.0800861897377786	0.0800861897377786	0.0800861897377786	0.0800861897377786
0.219232214252804	0.219232214252804	0.219232214252804	0.219232214252804	0.219232214252804	0.219232214252804
0.119760132640925	0.119760132640925	0.119760132640925	0.119760132640925	0.119760132640925	0.119760132640925
0.177509395706093	0.177509395706093	0.177509395706093	0.177509395706093	0.177509395706093	0.177509395706093
0.265429592980035	0.265429592980035	0.265429592980035	0.265429592980035	0.265429592980035	0.265429592980035
0.197698326893992	0.197698326893992	0.197698326893992	0.197698326893992	0.197698326893992	0.197698326893992
0.165924836395932	0.165924836395932	0.165924836395932	0.165924836395932	0.165924836395932	0.165924836395932
0.214669828083529	0.214669828083529	0.214669828083529	0.214669828083529	0.214669828083529	0.214669828083529
0.262326986543541	0.262326986543541	0.262326986543541	0.262326986543541	0.262326986543541	0.262326986543541
0.327998478983922	0.327998478983922	0.327998478983922	0.327998478983922	0.327998478983922	0.327998478983922
0.226701294969763	0.226701294969763	0.226701294969763	0.226701294969763	0.226701294969763	0.226701294969763
0.367432957483922	0.367432957483922	0.367432957483922	0.367432957483922	0.367432957483922	0.367432957483922
0.235739042688155	0.235739042688155	0.235739042688155	0.235739042688155	0.235739042688155	0.235739042688155
0.371424767062797	0.371424767062797	0.371424767062797	0.371424767062797	0.371424767062797	0.371424767062797
0.426703874758866	0.426703874758866	0.426703874758866	0.426703874758866	0.426703874758866	0.426703874758866
0.290630753279904	0.290630753279904	0.290630753279904	0.290630753279904	0.290630753279904	0.290630753279904
0.462284785199971	0.462284785199971	0.462284785199971	0.462284785199971	0.462284785199971	0.462284785199971
