1.07638657441399	1.07638657441399	1.07638657441399	1.07638657441399	1.07638657441399	1.07638657441399
1.03249778555289	1.03249778555289	1.03249778555289	1.03249778555289	1.03249778555289	1.03249778555289
0.917774881031295	0.917774881031295	0.917774881031295	0.917774881031295	0.917774881031295	0.917774881031295
0.750150617750925	0.750150617750925	0.750150617750925	0.750150617750925	0.750150617750925	0.750150617750925
0.553664873708663	0.553664873708663	0.553664873708663	0.553664873708663	0.553664873708663	0.553664873708663
0.350115979388543	0.350115979388543	0.350115979388543	0.350115979388543	0.350115979388543	0.350115979388543
0.158880037434903	0.158880037434903	0.158880037434903	0.158880037434903	0.158880037434903	0.158880037434903
-0.00410684958671326	-0.00410684958671326	-0.00410684958671326	-0.00410684958671326	-0.00410684958671326	-0.00410684958671326
-0.131564575513596	-0.131564575513596	-0.131564575513596	-0.131564575513596	-0.131564575513596	-0.131564575513596
-0.221173782265728	-0.221173782265728	-0.221173782265728	-0.221173782265728	-0.221173782265728	-0.221173782265728
-0.273475856248499	-0.273475856248499	-0.273475856248499	-0.273475856248499	-0.273475856248499	-0.273475856248499
-0.291877432853407	-0.291877432853407	-0.291877432853407	-0.291877432853407	-0.291877432853407	-0.291877432853407
-0.282650396458057	-0.282650396458057	-0.282650396458057	-0.282650396458057	-0.282650396458057	-0.282650396458057
-0.254079572090432	-0.254079572090432	-0.254079572090432	-0.254079572090432	-0.254079572090432	-0.254079572090432
-0.21437696670133	-0.21437696670133	-0.21437696670133	-0.21437696670133	-0.21437696670133	-0.21437696670133
-0.171391146060086	-0.171391146060086	-0.171391146060086	-0.171391146060086	-0.171391146060086	-0.171391146060086
-0.130928440799347	-0.130928440799347	-0.130928440799347	-0.130928440799347	-0.130928440799347	-0.130928440799347
-0.0967076292348951	-0.0967076292348951	-0.0967076292348951	-0.0967076292348951	-0.0967076292348951	-0.0967076292348951
-0.0703599373656463	-0.0703599373656463	-0.0703599373656463	-0.0703599373656463	-0.0703599373656463	-0.0703599373656463
-0.0514492345727223	-0.0514492345727223	-0.0514492345727223	-0.0514492345727223	-0.0514492345727223	-0.0514492345727223
-0.0385432183374869	-0.0385432183374869	-0.0385432183374869	-0.0385432183374869	-0.0385432183374869	-0.0385432183374869
-0.0300954516383207	-0.0300954516383207	-0.0300954516383207	-0.0300954516383207	-0.0300954516383207	-0.0300954516383207
-0.0246380259549305	-0.0246380259549305	-0.0246380259549305	-0.0246380259549305	-0.0246380259549305	-0.0246380259549305
-0.0209779723702448	-0.0209779723702448	-0.0209779723702448	-0.0209779723702448	-0.0209779723702448	-0.0209779723702448
-0.0181972615704136	-0.0181972615704136	-0.0181972615704136	-0.0181972615704136	-0.0181972615704136	-0.0181972615704136
-0.0156528038448088	-0.0156528038448088	-0.0156528038448088	-0.0156528038448088	-0.0156528038448088	-0.0156528038448088
-0.0129764490860238	-0.0129764490860238	-0.0129764490860238	-0.0129764490860238	-0.0129764490860238	-0.0129764490860238
-0.0100749867898741	-0.0100749867898741	-0.0100749867898741	-0.0100749867898741	-0.0100749867898741	-0.0100749867898741
-0.0070244126567735	-0.0070244126567735	-0.0070244126567735	-0.0070244126567735	-0.0070244126567735	-0.0070244126567735
-0.00366128305909624	-0.00366128305909624	-0.00366128305909624	-0.00366128305909624	-0.00366128305909624	-0.00366128305909624
7.51333069953786e-05	7.51333069953786e-05	7.51333069953786e-05	7.51333069953786e-05	7.51333069953786e-05	7.51333069953786e-05
0.00422853429854075	0.00422853429854075	0.00422853429854075	0.00422853429854075	0.00422853429854075	0.00422853429854075
0.00884132915772373	0.00884132915772373	0.00884132915772373	0.00884132915772373	0.00884132915772373	0.00884132915772373
0.0139546385118723	0.0139546385118723	0.0139546385118723	0.0139546385118723	0.0139546385118723	0.0139546385118723
0.0196082943734583	0.0196082943734583	0.0196082943734583	0.0196082943734583	0.0196082943734583	0.0196082943734583
0.0258408401400981	0.0258408401400981	0.0258408401400981	0.0258408401400981	0.0258408401400981	0.0258408401400981
0.0326895305945517	0.0326895305945517	0.0326895305945517	0.0326895305945517	0.0326895305945517	0.0326895305945517
0.0401903319047236	0.0401903319047236	0.0401903319047236	0.0401903319047236	0.0401903319047236	0.0401903319047236
0.0483692104402041	0.0483692104402041	0.0483692104402041	0.0483692104402041	0.0483692104402041	0.0483692104402041
0.057235753262043	0.057235753262043	0.057235753262043	0.057235753262043	0.057235753262043	0.057235753262043
0.0668253522964479	0.0668253522964479	0.0668253522964479	0.0668253522964479	0.0668253522964479	0.0668253522964479
0.0771639278803704	0.0771639278803704	0.0771639278803704	0.0771639278803704	0.0771639278803704	0.0771639278803704
0.0882651637392921	0.0882651637392921	0.0882651637392921	0.0882651637392921	0.0882651637392921	0.0882651637392921
0.100130506987225	0.100130506987225	0.100130506987225	0.100130506987225	0.100130506987225	0.100130506987225
0.112749168126709	0.112749168126709	0.112749168126709	0.112749168126709	0.112749168126709	0.112749168126709
0.126098121048819	0.126098121048819	0.126098121048819	0.126098121048819	0.126098121048819	0.126098121048819
0.140142103033154	0.140142103033154	0.140142103033154	0.140142103033154	0.140142103033154	0.140142103033154
0.154833614747846	0.154833614747846	0.154833614747846	0.154833614747846	0.154833614747846	0.154833614747846
0.170112920249558	0.170112920249558	0.170112920249558	0.170112920249558	0.170112920249558	0.170112920249558
0.185908046983481	0.185908046983481	0.185908046983481	0.185908046983481	0.185908046983481	0.185908046983481
0.202134785783337	0.202134785783337	0.202134785783337	0.202134785783337	0.202134785783337	0.202134785783337
0.218696690871378	0.218696690871378	0.218696690871378	0.218696690871378	0.218696690871378	0.218696690871378
0.235485079858385	0.235485079858385	0.235485079858385	0.235485079858385	0.235485079858385	0.235485079858385
0.252379033743671	0.252379033743671	0.252379033743671	0.252379033743671	0.252379033743671	0.252379033743671
0.269245396915076	0.269245396915076	0.269245396915076	0.269245396915076	0.269245396915076	0.269245396915076
0.285938777148974	0.285938777148974	0.285938777148974	0.285938777148974	0.285938777148974	0.285938777148974
0.302301545610265	0.302301545610265	0.302301545610265	0.302301545610265	0.302301545610265	0.302301545610265
0.318198089341458	0.318198089341458	0.318198089341458	0.318198089341458	0.318198089341458	0.318198089341458
0.333515796723343	0.333515796723343	0.333515796723343	0.333515796723343	0.333515796723343	0.333515796723343
0.348069253831833	0.348069253831833	0.348069253831833	0.348069253831833	0.348069253831833	0.348069253831833
0.361686230256918	0.361686230256918	0.361686230256918	0.361686230256918	0.361686230256918	0.361686230256918
0.374210657716313	0.374210657716313	0.374210657716313	0.374210657716313	0.374210657716313	0.374210657716313
0.385502630055451	0.385502630055451	0.385502630055451	0.385502630055451	0.385502630055451	0.385502630055451
0.395438403247487	0.395438403247487	0.395438403247487	0.395438403247487	0.395438403247487	0.395438403247487
0.403910395393296	0.403910395393296	0.403910395393296	0.403910395393296	0.403910395393296	0.403910395393296
0.410827186721475	0.410827186721475	0.410827186721475	0.410827186721475	0.410827186721475	0.410827186721475
0.416113519588342	0.416113519588342	0.416113519588342	0.416113519588342	0.416113519588342	0.416113519588342
0.419710298477934	0.419710298477934	0.419710298477934	0.419710298477934	0.419710298477934	0.419710298477934
0.421574590002012	0.421574590002012	0.421574590002012	0.421574590002012	0.421574590002012	0.421574590002012
0.421679622900055	0.421679622900055	0.421679622900055	0.421679622900055	0.421679622900055	0.421679622900055
0.420014788039266	0.420014788039266	0.420014788039266	0.420014788039266	0.420014788039266	0.420014788039266
0.416585638414565	0.416585638414565	0.416585638414565	0.416585638414565	0.416585638414565	0.416585638414565
0.411387526678115	0.411387526678115	0.411387526678115	0.411387526678115	0.411387526678115	0.411387526678115
0.404322922443834	0.404322922443834	0.404322922443834	0.404322922443834	0.404322922443834	0.404322922443834
0.395535561999223	0.395535561999223	0.395535561999223	0.395535561999223	0.395535561999223	0.395535561999223
0.385207144253688	0.385207144253688	0.385207144253688	0.385207144253688	0.385207144253688	0.385207144253688
0.373513383979803	0.373513383979803	0.373513383979803	0.373513383979803	0.373513383979803	0.373513383979803
0.360624011813312	0.360624011813312	0.360624011813312	0.360624011813312	0.360624011813312	0.360624011813312
0.346702774253128	0.346702774253128	0.346702774253128	0.346702774253128	0.346702774253128	0.346702774253128
0.331907433661335	0.331907433661335	0.331907433661335	0.331907433661335	0.331907433661335	0.331907433661335
0.316389768263186	0.316389768263186	0.316389768263186	0.316389768263186	0.316389768263186	0.316389768263186
0.300295572147102	0.300295572147102	0.300295572147102	0.300295572147102	0.300295572147102	0.300295572147102
0.283764655264676	0.283764655264676	0.283764655264676	0.283764655264676	0.283764655264676	0.283764655264676
0.266930843430668	0.266930843430668	0.266930843430668	0.266930843430668	0.266930843430668	0.266930843430668
0.249921978323011	0.249921978323011	0.249921978323011	0.249921978323011	0.249921978323011	0.249921978323011
0.232859917482805	0.232859917482805	0.232859917482805	0.232859917482805	0.232859917482805	0.232859917482805
0.21586053431432	0.21586053431432	0.21586053431432	0.21586053431432	0.21586053431432	0.21586053431432
0.199033718084996	0.199033718084996	0.199033718084996	0.199033718084996	0.199033718084996	0.199033718084996
0.182483373925443	0.182483373925443	0.182483373925443	0.182483373925443	0.182483373925443	0.182483373925443
0.166307422829439	0.166307422829439	0.166307422829439	0.166307422829439	0.166307422829439	0.166307422829439
0.150597801653933	0.150597801653933	0.150597801653933	0.150597801653933	0.150597801653933	0.150597801653933
0.135440463119044	0.135440463119044	0.135440463119044	0.135440463119044	0.135440463119044	0.135440463119044
0.120915375808059	0.120915375808059	0.120915375808059	0.120915375808059	0.120915375808059	0.120915375808059
0.107096524167436	0.107096524167436	0.107096524167436	0.107096524167436	0.107096524167436	0.107096524167436
0.0940519085068023	0.0940519085068023	0.0940519085068023	0.0940519085068023	0.0940519085068023	0.0940519085068023
0.0818435449989534	0.0818435449989534	0.0818435449989534	0.0818435449989534	0.0818435449989534	0.0818435449989534
0.0705273515786068	0.0705273515786068	0.0705273515786068	0.0705273515786068	0.0705273515786068	0.0705273515786068
0.0601249450985103	0.0601249450985103	0.0601249450985103	0.0601249450985103	0.0601249450985103	0.0601249450985103
0.0506010484337318	0.0506010484337318	0.0506010484337318	0.0506010484337318	0.0506010484337318	0.0506010484337318
0.0419160015665729	0.0419160015665729	0.0419160015665729	0.0419160015665729	0.0419160015665729	0.0419160015665729
0.0340304483601507	0.0340304483601507	0.0340304483601507	0.0340304483601507	0.0340304483601507	0.0340304483601507
0.0269053365583984	0.0269053365583984	0.0269053365583984	0.0269053365583984	0.0269053365583984	0.0269053365583984
0.0205019177860654	0.0205019177860654	0.0205019177860654	0.0205019177860654	0.0205019177860654	0.0205019177860654
0.0147817475487166	0.0147817475487166	0.0147817475487166	0.0147817475487166	0.0147817475487166	0.0147817475487166
0.00970668523273321	0.00970668523273321	0.00970668523273321	0.00970668523273321	0.00970668523273321	0.00970668523273321
0.00523889410531225	0.00523889410531225	0.00523889410531225	0.00523889410531225	0.00523889410531225	0.00523889410531225
0.0013408413144666	0.0013408413144666	0.0013408413144666	0.0013408413144666	0.0013408413144666	0.0013408413144666
-0.00202470211097483	-0.00202470211097483	-0.00202470211097483	-0.00202470211097483	-0.00202470211097483	-0.00202470211097483
-0.00489466126136706	-0.00489466126136706	-0.00489466126136706	-0.00489466126136706	-0.00489466126136706	-0.00489466126136706
-0.00730565734624949	-0.00730565734624949	-0.00730565734624949	-0.00730565734624949	-0.00730565734624949	-0.00730565734624949
-0.00929400769434502	-0.00929400769434502	-0.00929400769434502	-0.00929400769434502	-0.00929400769434502	-0.00929400769434502
-0.0108957257535613	-0.0108957257535613	-0.0108957257535613	-0.0108957257535613	-0.0108957257535613	-0.0108957257535613
-0.0121465210909895	-0.0121465210909895	-0.0121465210909895	-0.0121465210909895	-0.0121465210909895	-0.0121465210909895
-0.013081799392905	-0.013081799392905	-0.013081799392905	-0.013081799392905	-0.013081799392905	-0.013081799392905
-0.0137366624647673	-0.0137366624647673	-0.0137366624647673	-0.0137366624647673	-0.0137366624647673	-0.0137366624647673
-0.01414590823122	-0.01414590823122	-0.01414590823122	-0.01414590823122	-0.01414590823122	-0.01414590823122
-0.0143440307360908	-0.0143440307360908	-0.0143440307360908	-0.0143440307360908	-0.0143440307360908	-0.0143440307360908
-0.0143652201423908	-0.0143652201423908	-0.0143652201423908	-0.0143652201423908	-0.0143652201423908	-0.0143652201423908
-0.014243362732316	-0.014243362732316	-0.014243362732316	-0.014243362732316	-0.014243362732316	-0.014243362732316
-0.0140109408295865	-0.0140109408295865	-0.0140109408295865	-0.0140109408295865	-0.0140109408295865	-0.0140109408295865
-0.0136348620225619	-0.0136348620225619	-0.0136348620225619	-0.0136348620225619	-0.0136348620225619	-0.0136348620225619
-0.0131061950249925	-0.0131061950249925	-0.0131061950249925	-0.0131061950249925	-0.0131061950249925	-0.0131061950249925
-0.0124520435057752	-0.0124520435057752	-0.0124520435057752	-0.0124520435057752	-0.0124520435057752	-0.0124520435057752
-0.0116972032575926	-0.0116972032575926	-0.0116972032575926	-0.0116972032575926	-0.0116972032575926	-0.0116972032575926
-0.0108641621969133	-0.0108641621969133	-0.0108641621969133	-0.0108641621969133	-0.0108641621969133	-0.0108641621969133
-0.00997310036399168	-0.00997310036399168	-0.00997310036399168	-0.00997310036399168	-0.00997310036399168	-0.00997310036399168
-0.00904188992286847	-0.00904188992286847	-0.00904188992286847	-0.00904188992286847	-0.00904188992286847	-0.00904188992286847
-0.00808609516136988	-0.00808609516136988	-0.00808609516136988	-0.00808609516136988	-0.00808609516136988	-0.00808609516136988
-0.00711897249110843	-0.00711897249110843	-0.00711897249110843	-0.00711897249110843	-0.00711897249110843	-0.00711897249110843
-0.00615147044748221	-0.00615147044748221	-0.00615147044748221	-0.00615147044748221	-0.00615147044748221	-0.00615147044748221
-0.00519222968967548	-0.00519222968967548	-0.00519222968967548	-0.00519222968967548	-0.00519222968967548	-0.00519222968967548
-0.00424758300065842	-0.00424758300065842	-0.00424758300065842	-0.00424758300065842	-0.00424758300065842	-0.00424758300065842
-0.00332155528718714	-0.00332155528718714	-0.00332155528718714	-0.00332155528718714	-0.00332155528718714	-0.00332155528718714
-0.0024158635798035	-0.0024158635798035	-0.0024158635798035	-0.0024158635798035	-0.0024158635798035	-0.0024158635798035
-0.00152991703283556	-0.00152991703283556	-0.00152991703283556	-0.00152991703283556	-0.00152991703283556	-0.00152991703283556
-0.000660816924397067	-0.000660816924397067	-0.000660816924397067	-0.000660816924397067	-0.000660816924397067	-0.000660816924397067
0.000196643343611913	0.000196643343611913	0.000196643343611913	0.000196643343611913	0.000196643343611913	0.000196643343611913
0.00104997824550584	0.00104997824550584	0.00104997824550584	0.00104997824550584	0.00104997824550584	0.00104997824550584
0.00190901013181305	0.00190901013181305	0.00190901013181305	0.00190901013181305	0.00190901013181305	0.00190901013181305
0.00278360718119047	0.00278360718119047	0.00278360718119047	0.00278360718119047	0.00278360718119047	0.00278360718119047
0.00366460083399589	0.00366460083399589	0.00366460083399589	0.00366460083399589	0.00366460083399589	0.00366460083399589
0.00454726801925781	0.00454726801925781	0.00454726801925781	0.00454726801925781	0.00454726801925781	0.00454726801925781
0.00542993840570527	0.00542993840570527	0.00542993840570527	0.00542993840570527	0.00542993840570527	0.00542993840570527
0.00631117920859875	0.00631117920859875	0.00631117920859875	0.00631117920859875	0.00631117920859875	0.00631117920859875
0.00718979518972956	0.00718979518972956	0.00718979518972956	0.00718979518972956	0.00718979518972956	0.00718979518972956
0.00806482865742031	0.00806482865742031	0.00806482865742031	0.00806482865742031	0.00806482865742031	0.00806482865742031
0.00893555946652486	0.00893555946652486	0.00893555946652486	0.00893555946652486	0.00893555946652486	0.00893555946652486
0.0098015050184278	0.0098015050184278	0.0098015050184278	0.0098015050184278	0.0098015050184278	0.0098015050184278
0.0106624202610453	0.0106624202610453	0.0106624202610453	0.0106624202610453	0.0106624202610453	0.0106624202610453
0.0115182976888245	0.0115182976888245	0.0115182976888245	0.0115182976888245	0.0115182976888245	0.0115182976888245
0.0123693673427436	0.0123693673427436	0.0123693673427436	0.0123693673427436	0.0123693673427436	0.0123693673427436
0.0132160968103122	0.0132160968103122	0.0132160968103122	0.0132160968103122	0.0132160968103122	0.0132160968103122
0.0140591912255707	0.0140591912255707	0.0140591912255707	0.0140591912255707	0.0140591912255707	0.0140591912255707
0.0148995932690908	0.0148995932690908	0.0148995932690908	0.0148995932690908	0.0148995932690908	0.0148995932690908
0.0157384831679756	0.0157384831679756	0.0157384831679756	0.0157384831679756	0.0157384831679756	0.0157384831679756
0.0165772786958589	0.0165772786958589	0.0165772786958589	0.0165772786958589	0.0165772786958589	0.0165772786958589
0.0174176351729058	0.0174176351729058	0.0174176351729058	0.0174176351729058	0.0174176351729058	0.0174176351729058
0.0182614454658127	0.0182614454658127	0.0182614454658127	0.0182614454658127	0.0182614454658127	0.0182614454658127
0.0191108399878069	0.0191108399878069	0.0191108399878069	0.0191108399878069	0.0191108399878069	0.0191108399878069
0.0199681866986473	0.0199681866986473	0.0199681866986473	0.0199681866986473	0.0199681866986473	0.0199681866986473
0.0208360911046231	0.0208360911046231	0.0208360911046231	0.0208360911046231	0.0208360911046231	0.0208360911046231
0.0217173962585556	0.0217173962585556	0.0217173962585556	0.0217173962585556	0.0217173962585556	0.0217173962585556
0.0226151827597963	0.0226151827597963	0.0226151827597963	0.0226151827597963	0.0226151827597963	0.0226151827597963
0.023532768754229	0.023532768754229	0.023532768754229	0.023532768754229	0.023532768754229	0.023532768754229
0.0244737568034795	0.0244737568034795	0.0244737568034795	0.0244737568034795	0.0244737568034795	0.0244737568034795
0.0254568782489621	0.0254568782489621	0.0254568782489621	0.0254568782489621	0.0254568782489621	0.0254568782489621
0.0264992560090522	0.0264992560090522	0.0264992560090522	0.0264992560090522	0.0264992560090522	0.0264992560090522
0.0276134778432985	0.0276134778432985	0.0276134778432985	0.0276134778432985	0.0276134778432985	0.0276134778432985
0.0288209838867211	0.0288209838867211	0.0288209838867211	0.0288209838867211	0.0288209838867211	0.0288209838867211
0.0301520666498106	0.0301520666498106	0.0301520666498106	0.0301520666498106	0.0301520666498106	0.0301520666498106
0.0316458710185297	0.0316458710185297	0.0316458710185297	0.0316458710185297	0.0316458710185297	0.0316458710185297
0.0333503942543111	0.0333503942543111	0.0333503942543111	0.0333503942543111	0.0333503942543111	0.0333503942543111
0.0353224859940596	0.0353224859940596	0.0353224859940596	0.0353224859940596	0.0353224859940596	0.0353224859940596
0.0376278482501503	0.0376278482501503	0.0376278482501503	0.0376278482501503	0.0376278482501503	0.0376278482501503
0.0403410354104299	0.0403410354104299	0.0403410354104299	0.0403410354104299	0.0403410354104299	0.0403410354104299
0.043545454238216	0.043545454238216	0.043545454238216	0.043545454238216	0.043545454238216	0.043545454238216
0.0473333638722971	0.0473333638722971	0.0473333638722971	0.0473333638722971	0.0473333638722971	0.0473333638722971
0.0518058758269338	0.0518058758269338	0.0518058758269338	0.0518058758269338	0.0518058758269338	0.0518058758269338
0.0570383018841413	0.0570383018841413	0.0570383018841413	0.0570383018841413	0.0570383018841413	0.0570383018841413
0.0631001497930382	0.0631001497930382	0.0631001497930382	0.0631001497930382	0.0631001497930382	0.0631001497930382
0.0701568271941926	0.0701568271941926	0.0701568271941926	0.0701568271941926	0.0701568271941926	0.0701568271941926
0.0783371797376934	0.0783371797376934	0.0783371797376934	0.0783371797376934	0.0783371797376934	0.0783371797376934
0.0877281994894249	0.0877281994894249	0.0877281994894249	0.0877281994894249	0.0877281994894249	0.0877281994894249
0.0983750249310661	0.0983750249310661	0.0983750249310661	0.0983750249310661	0.0983750249310661	0.0983750249310661
0.110280940960092	0.110280940960092	0.110280940960092	0.110280940960092	0.110280940960092	0.110280940960092
0.123407378889771	0.123407378889771	0.123407378889771	0.123407378889771	0.123407378889771	0.123407378889771
0.137673916449168	0.137673916449168	0.137673916449168	0.137673916449168	0.137673916449168	0.137673916449168
0.152958277783144	0.152958277783144	0.152958277783144	0.152958277783144	0.152958277783144	0.152958277783144
0.169096333452353	0.169096333452353	0.169096333452353	0.169096333452353	0.169096333452353	0.169096333452353
0.185882100433245	0.185882100433245	0.185882100433245	0.185882100433245	0.185882100433245	0.185882100433245
0.203067742118066	0.203067742118066	0.203067742118066	0.203067742118066	0.203067742118066	0.203067742118066
0.220378888044545	0.220378888044545	0.220378888044545	0.220378888044545	0.220378888044545	0.220378888044545
0.237543905294253	0.237543905294253	0.237543905294253	0.237543905294253	0.237543905294253	0.237543905294253
0.254081877593911	0.254081877593911	0.254081877593911	0.254081877593911	0.254081877593911	0.254081877593911
0.269526441885862	0.269526441885862	0.269526441885862	0.269526441885862	0.269526441885862	0.269526441885862
0.283466862267562	0.283466862267562	0.283466862267562	0.283466862267562	0.283466862267562	0.283466862267562
0.29554802999159	0.29554802999159	0.29554802999159	0.29554802999159	0.29554802999159	0.29554802999159
0.305470463465643	0.305470463465643	0.305470463465643	0.305470463465643	0.305470463465643	0.305470463465643
0.312990308252534	0.312990308252534	0.312990308252534	0.312990308252534	0.312990308252534	0.312990308252534
0.3179193370702	0.3179193370702	0.3179193370702	0.3179193370702	0.3179193370702	0.3179193370702
0.320124949791692	0.320124949791692	0.320124949791692	0.320124949791692	0.320124949791692	0.320124949791692
0.319530173445183	0.319530173445183	0.319530173445183	0.319530173445183	0.319530173445183	0.319530173445183
0.316113662213963	0.316113662213963	0.316113662213963	0.316113662213963	0.316113662213963	0.316113662213963
0.30985819213947	0.30985819213947	0.30985819213947	0.30985819213947	0.30985819213947	0.30985819213947
0.300784458155251	0.300784458155251	0.300784458155251	0.300784458155251	0.300784458155251	0.300784458155251
0.289357540369748	0.289357540369748	0.289357540369748	0.289357540369748	0.289357540369748	0.289357540369748
0.276053768117842	0.276053768117842	0.276053768117842	0.276053768117842	0.276053768117842	0.276053768117842
0.26131696281626	0.26131696281626	0.26131696281626	0.26131696281626	0.26131696281626	0.26131696281626
0.245558437963578	0.245558437963578	0.245558437963578	0.245558437963578	0.245558437963578	0.245558437963578
0.229156999140219	0.229156999140219	0.229156999140219	0.229156999140219	0.229156999140219	0.229156999140219
0.212458944008456	0.212458944008456	0.212458944008456	0.212458944008456	0.212458944008456	0.212458944008456
0.195778062312409	0.195778062312409	0.195778062312409	0.195778062312409	0.195778062312409	0.195778062312409
0.179395635878046	0.179395635878046	0.179395635878046	0.179395635878046	0.179395635878046	0.179395635878046
0.163560438613185	0.163560438613185	0.163560438613185	0.163560438613185	0.163560438613185	0.163560438613185
0.14848873650749	0.14848873650749	0.14848873650749	0.14848873650749	0.14848873650749	0.14848873650749
0.134364287632476	0.134364287632476	0.134364287632476	0.134364287632476	0.134364287632476	0.134364287632476
0.121338342141503	0.121338342141503	0.121338342141503	0.121338342141503	0.121338342141503	0.121338342141503
0.109529642269781	0.109529642269781	0.109529642269781	0.109529642269781	0.109529642269781	0.109529642269781
0.0990244223343684	0.0990244223343684	0.0990244223343684	0.0990244223343684	0.0990244223343684	0.0990244223343684
0.089876353247952	0.089876353247952	0.089876353247952	0.089876353247952	0.089876353247952	0.089876353247952
0.0820328725995493	0.0820328725995493	0.0820328725995493	0.0820328725995493	0.0820328725995493	0.0820328725995493
0.0753916620084757	0.0753916620084757	0.0753916620084757	0.0753916620084757	0.0753916620084757	0.0753916620084757
0.0698629809665742	0.0698629809665742	0.0698629809665742	0.0698629809665742	0.0698629809665742	0.0698629809665742
0.0653126550637923	0.0653126550637923	0.0653126550637923	0.0653126550637923	0.0653126550637923	0.0653126550637923
0.0615620759881827	0.0615620759881827	0.0615620759881827	0.0615620759881827	0.0615620759881827	0.0615620759881827
0.0583882015259027	0.0583882015259027	0.0583882015259027	0.0583882015259027	0.0583882015259027	0.0583882015259027
0.055526676024765	0.055526676024765	0.055526676024765	0.055526676024765	0.055526676024765	0.055526676024765
0.0524402051188401	0.0524402051188401	0.0524402051188401	0.0524402051188401	0.0524402051188401	0.0524402051188401
0.0483415400336205	0.0483415400336205	0.0483415400336205	0.0483415400336205	0.0483415400336205	0.0483415400336205
0.0423508814583768	0.0423508814583768	0.0423508814583768	0.0423508814583768	0.0423508814583768	0.0423508814583768
0.0334972140789421	0.0334972140789421	0.0334972140789421	0.0334972140789421	0.0334972140789421	0.0334972140789421
0.0207183065777123	0.0207183065777123	0.0207183065777123	0.0207183065777123	0.0207183065777123	0.0207183065777123
0.0029696301637952	0.0029696301637952	0.0029696301637952	0.0029696301637952	0.0029696301637952	0.0029696301637952
-0.0195630968652407	-0.0195630968652407	-0.0195630968652407	-0.0195630968652407	-0.0195630968652407	-0.0195630968652407
-0.0451056645000183	-0.0451056645000183	-0.0451056645000183	-0.0451056645000183	-0.0451056645000183	-0.0451056645000183
-0.0706325570229946	-0.0706325570229946	-0.0706325570229946	-0.0706325570229946	-0.0706325570229946	-0.0706325570229946
-0.09187134802293	-0.09187134802293	-0.09187134802293	-0.09187134802293	-0.09187134802293	-0.09187134802293
-0.103302700394888	-0.103302700394888	-0.103302700394888	-0.103302700394888	-0.103302700394888	-0.103302700394888
-0.0981615975641145	-0.0981615975641145	-0.0981615975641145	-0.0981615975641145	-0.0981615975641145	-0.0981615975641145
-0.0704020276943279	-0.0704020276943279	-0.0704020276943279	-0.0704020276943279	-0.0704020276943279	-0.0704020276943279
-0.013524027486396	-0.013524027486396	-0.013524027486396	-0.013524027486396	-0.013524027486396	-0.013524027486396
0.0773896364211435	0.0773896364211435	0.0773896364211435	0.0773896364211435	0.0773896364211435	0.0773896364211435
0.203034139802851	0.203034139802851	0.203034139802851	0.203034139802851	0.203034139802851	0.203034139802851
0.359882600846388	0.359882600846388	0.359882600846388	0.359882600846388	0.359882600846388	0.359882600846388
0.540186080152522	0.540186080152522	0.540186080152522	0.540186080152522	0.540186080152522	0.540186080152522
0.733233415932185	0.733233415932185	0.733233415932185	0.733233415932185	0.733233415932185	0.733233415932185
0.915206759152233	0.915206759152233	0.915206759152233	0.915206759152233	0.915206759152233	0.915206759152233
1.057496643237	1.057496643237	1.057496643237	1.057496643237	1.057496643237	1.057496643237
1.14030677455129	1.14030677455129	1.14030677455129	1.14030677455129	1.14030677455129	1.14030677455129
1.15278272142851	1.15278272142851	1.15278272142851	1.15278272142851	1.15278272142851	1.15278272142851
1.09301191417064	1.09301191417064	1.09301191417064	1.09301191417064	1.09301191417064	1.09301191417064
0.968023645048265	0.968023645048265	0.968023645048265	0.968023645048265	0.968023645048265	0.968023645048265
0.793488096130958	0.793488096130958	0.793488096130958	0.793488096130958	0.793488096130958	0.793488096130958
0.593296263202979	0.593296263202979	0.593296263202979	0.593296263202979	0.593296263202979	0.593296263202979
0.39032199321069	0.39032199321069	0.39032199321069	0.39032199321069	0.39032199321069	0.39032199321069
0.202301478240951	0.202301478240951	0.202301478240951	0.202301478240951	0.202301478240951	0.202301478240951
0.0418236778322231	0.0418236778322231	0.0418236778322231	0.0418236778322231	0.0418236778322231	0.0418236778322231
-0.0836696810254286	-0.0836696810254286	-0.0836696810254286	-0.0836696810254286	-0.0836696810254286	-0.0836696810254286
-0.171135721073917	-0.171135721073917	-0.171135721073917	-0.171135721073917	-0.171135721073917	-0.171135721073917
-0.22210626408229	-0.22210626408229	-0.22210626408229	-0.22210626408229	-0.22210626408229	-0.22210626408229
-0.241157995971859	-0.241157995971859	-0.241157995971859	-0.241157995971859	-0.241157995971859	-0.241157995971859
-0.233838462037442	-0.233838462037442	-0.233838462037442	-0.233838462037442	-0.233838462037442	-0.233838462037442
-0.206657141458981	-0.206657141458981	-0.206657141458981	-0.206657141458981	-0.206657141458981	-0.206657141458981
-0.167085447301535	-0.167085447301535	-0.167085447301535	-0.167085447301535	-0.167085447301535	-0.167085447301535
-0.123528788812648	-0.123528788812648	-0.123528788812648	-0.123528788812648	-0.123528788812648	-0.123528788812648
-0.082744847060419	-0.082744847060419	-0.082744847060419	-0.082744847060419	-0.082744847060419	-0.082744847060419
-0.0473825713997653	-0.0473825713997653	-0.0473825713997653	-0.0473825713997653	-0.0473825713997653	-0.0473825713997653
-0.0188681206214816	-0.0188681206214816	-0.0188681206214816	-0.0188681206214816	-0.0188681206214816	-0.0188681206214816
0.00234930676153933	0.00234930676153933	0.00234930676153933	0.00234930676153933	0.00234930676153933	0.00234930676153933
0.0167974725143084	0.0167974725143084	0.0167974725143084	0.0167974725143084	0.0167974725143084	0.0167974725143084
0.0259810986797381	0.0259810986797381	0.0259810986797381	0.0259810986797381	0.0259810986797381	0.0259810986797381
0.0321954574863902	0.0321954574863902	0.0321954574863902	0.0321954574863902	0.0321954574863902	0.0321954574863902
0.0366130329148304	0.0366130329148304	0.0366130329148304	0.0366130329148304	0.0366130329148304	0.0366130329148304
0.0399127936655451	0.0399127936655451	0.0399127936655451	0.0399127936655451	0.0399127936655451	0.0399127936655451
0.0426895145349873	0.0426895145349873	0.0426895145349873	0.0426895145349873	0.0426895145349873	0.0426895145349873
0.0453713857104596	0.0453713857104596	0.0453713857104596	0.0453713857104596	0.0453713857104596	0.0453713857104596
0.048220012770114	0.048220012770114	0.048220012770114	0.048220012770114	0.048220012770114	0.048220012770114
0.0513304166829528	0.0513304166829528	0.0513304166829528	0.0513304166829528	0.0513304166829528	0.0513304166829528
0.0546932330801536	0.0546932330801536	0.0546932330801536	0.0546932330801536	0.0546932330801536	0.0546932330801536
0.0583951934232509	0.0583951934232509	0.0583951934232509	0.0583951934232509	0.0583951934232509	0.0583951934232509
0.0624816510932032	0.0624816510932032	0.0624816510932032	0.0624816510932032	0.0624816510932032	0.0624816510932032
0.0669930773909085	0.0669930773909085	0.0669930773909085	0.0669930773909085	0.0669930773909085	0.0669930773909085
0.0719689748086255	0.0719689748086255	0.0719689748086255	0.0719689748086255	0.0719689748086255	0.0719689748086255
0.0774478770299729	0.0774478770299729	0.0774478770299729	0.0774478770299729	0.0774478770299729	0.0774478770299729
0.083467348929929	0.083467348929929	0.083467348929929	0.083467348929929	0.083467348929929	0.083467348929929
0.0900639865748333	0.0900639865748333	0.0900639865748333	0.0900639865748333	0.0900639865748333	0.0900639865748333
0.0972734172223846	0.0972734172223846	0.0972734172223846	0.0972734172223846	0.0972734172223846	0.0972734172223846
0.105119183554742	0.105119183554742	0.105119183554742	0.105119183554742	0.105119183554742	0.105119183554742
0.113619095051624	0.113619095051624	0.113619095051624	0.113619095051624	0.113619095051624	0.113619095051624
0.122812417136167	0.122812417136167	0.122812417136167	0.122812417136167	0.122812417136167	0.122812417136167
0.132728157009214	0.132728157009214	0.132728157009214	0.132728157009214	0.132728157009214	0.132728157009214
0.143384180981115	0.143384180981115	0.143384180981115	0.143384180981115	0.143384180981115	0.143384180981115
0.154787214471735	0.154787214471735	0.154787214471735	0.154787214471735	0.154787214471735	0.154787214471735
0.16693284201045	0.16693284201045	0.16693284201045	0.16693284201045	0.16693284201045	0.16693284201045
0.179805507236148	0.179805507236148	0.179805507236148	0.179805507236148	0.179805507236148	0.179805507236148
0.193378512897227	0.193378512897227	0.193378512897227	0.193378512897227	0.193378512897227	0.193378512897227
0.2076140208516	0.2076140208516	0.2076140208516	0.2076140208516	0.2076140208516	0.2076140208516
0.22246305206669	0.22246305206669	0.22246305206669	0.22246305206669	0.22246305206669	0.22246305206669
0.23786548661943	0.23786548661943	0.23786548661943	0.23786548661943	0.23786548661943	0.23786548661943
0.253750063696269	0.253750063696269	0.253750063696269	0.253750063696269	0.253750063696269	0.253750063696269
0.270034381593164	0.270034381593164	0.270034381593164	0.270034381593164	0.270034381593164	0.270034381593164
0.286624897715586	0.286624897715586	0.286624897715586	0.286624897715586	0.286624897715586	0.286624897715586
0.303416928578517	0.303416928578517	0.303416928578517	0.303416928578517	0.303416928578517	0.303416928578517
0.320294649806451	0.320294649806451	0.320294649806451	0.320294649806451	0.320294649806451	0.320294649806451
0.337174024400884	0.337174024400884	0.337174024400884	0.337174024400884	0.337174024400884	0.337174024400884
0.353930113291056	0.353930113291056	0.353930113291056	0.353930113291056	0.353930113291056	0.353930113291056
0.370384638440445	0.370384638440445	0.370384638440445	0.370384638440445	0.370384638440445	0.370384638440445
0.386369017587808	0.386369017587808	0.386369017587808	0.386369017587808	0.386369017587808	0.386369017587808
0.401724364247334	0.401724364247334	0.401724364247334	0.401724364247334	0.401724364247334	0.401724364247334
0.416301487708642	0.416301487708642	0.416301487708642	0.416301487708642	0.416301487708642	0.416301487708642
0.429960893036782	0.429960893036782	0.429960893036782	0.429960893036782	0.429960893036782	0.429960893036782
0.442572781072235	0.442572781072235	0.442572781072235	0.442572781072235	0.442572781072235	0.442572781072235
0.454017048430912	0.454017048430912	0.454017048430912	0.454017048430912	0.454017048430912	0.454017048430912
0.464183287504157	0.464183287504157	0.464183287504157	0.464183287504157	0.464183287504157	0.464183287504157
0.472970786458742	0.472970786458742	0.472970786458742	0.472970786458742	0.472970786458742	0.472970786458742
0.480288529236871	0.480288529236871	0.480288529236871	0.480288529236871	0.480288529236871	0.480288529236871
0.486055195556179	0.486055195556179	0.486055195556179	0.486055195556179	0.486055195556179	0.486055195556179
0.490199160909732	0.490199160909732	0.490199160909732	0.490199160909732	0.490199160909732	0.490199160909732
0.492658496566025	0.492658496566025	0.492658496566025	0.492658496566025	0.492658496566025	0.492658496566025
0.493380969568986	0.493380969568986	0.493380969568986	0.493380969568986	0.493380969568986	0.493380969568986
0.492304053178112	0.492304053178112	0.492304053178112	0.492304053178112	0.492304053178112	0.492304053178112
0.489328526577763	0.489328526577763	0.489328526577763	0.489328526577763	0.489328526577763	0.489328526577763
0.484546792473138	0.484546792473138	0.484546792473138	0.484546792473138	0.484546792473138	0.484546792473138
0.478078446571525	0.478078446571525	0.478078446571525	0.478078446571525	0.478078446571525	0.478078446571525
0.470043432742877	0.470043432742877	0.470043432742877	0.470043432742877	0.470043432742877	0.470043432742877
0.460562043019809	0.460562043019809	0.460562043019809	0.460562043019809	0.460562043019809	0.460562043019809
0.449754917597597	0.449754917597597	0.449754917597597	0.449754917597597	0.449754917597597	0.449754917597597
0.437743044834183	0.437743044834183	0.437743044834183	0.437743044834183	0.437743044834183	0.437743044834183
0.42464776125017	0.42464776125017	0.42464776125017	0.42464776125017	0.42464776125017	0.42464776125017
0.410590751528825	0.410590751528825	0.410590751528825	0.410590751528825	0.410590751528825	0.410590751528825
0.395694048516077	0.395694048516077	0.395694048516077	0.395694048516077	0.395694048516077	0.395694048516077
0.380080033220518	0.380080033220518	0.380080033220518	0.380080033220518	0.380080033220518	0.380080033220518
0.363871434813403	0.363871434813403	0.363871434813403	0.363871434813403	0.363871434813403	0.363871434813403
0.347191330628651	0.347191330628651	0.347191330628651	0.347191330628651	0.347191330628651	0.347191330628651
0.330163146162842	0.330163146162842	0.330163146162842	0.330163146162842	0.330163146162842	0.330163146162842
0.312910655075221	0.312910655075221	0.312910655075221	0.312910655075221	0.312910655075221	0.312910655075221
0.295557979187694	0.295557979187694	0.295557979187694	0.295557979187694	0.295557979187694	0.295557979187694
0.27822958848483	0.27822958848483	0.27822958848483	0.27822958848483	0.27822958848483	0.27822958848483
0.261050301113864	0.261050301113864	0.261050301113864	0.261050301113864	0.261050301113864	0.261050301113864
0.24414528338469	0.24414528338469	0.24414528338469	0.24414528338469	0.24414528338469	0.24414528338469
0.227640049769867	0.227640049769867	0.227640049769867	0.227640049769867	0.227640049769867	0.227640049769867
0.211660462904616	0.211660462904616	0.211660462904616	0.211660462904616	0.211660462904616	0.211660462904616
0.196332733586821	0.196332733586821	0.196332733586821	0.196332733586821	0.196332733586821	0.196332733586821
0.181780764148169	0.181780764148169	0.181780764148169	0.181780764148169	0.181780764148169	0.181780764148169
0.168030499636759	0.168030499636759	0.168030499636759	0.168030499636759	0.168030499636759	0.168030499636759
0.155071310354038	0.155071310354038	0.155071310354038	0.155071310354038	0.155071310354038	0.155071310354038
0.142909602314908	0.142909602314908	0.142909602314908	0.142909602314908	0.142909602314908	0.142909602314908
0.131547747573231	0.131547747573231	0.131547747573231	0.131547747573231	0.131547747573231	0.131547747573231
0.120984084221832	0.120984084221832	0.120984084221832	0.120984084221832	0.120984084221832	0.120984084221832
0.111212916392494	0.111212916392494	0.111212916392494	0.111212916392494	0.111212916392494	0.111212916392494
0.102224514255962	0.102224514255962	0.102224514255962	0.102224514255962	0.102224514255962	0.102224514255962
0.0940051140219416	0.0940051140219416	0.0940051140219416	0.0940051140219416	0.0940051140219416	0.0940051140219416
0.0865369179391001	0.0865369179391001	0.0865369179391001	0.0865369179391001	0.0865369179391001	0.0865369179391001
0.0797980942950637	0.0797980942950637	0.0797980942950637	0.0797980942950637	0.0797980942950637	0.0797980942950637
0.0737627774164207	0.0737627774164207	0.0737627774164207	0.0737627774164207	0.0737627774164207	0.0737627774164207
0.0684010676687198	0.0684010676687198	0.0684010676687198	0.0684010676687198	0.0684010676687198	0.0684010676687198
0.0636790314564705	0.0636790314564705	0.0636790314564705	0.0636790314564705	0.0636790314564705	0.0636790314564705
0.0595587012231428	0.0595587012231428	0.0595587012231428	0.0595587012231428	0.0595587012231428	0.0595587012231428
0.0559980754511678	0.0559980754511678	0.0559980754511678	0.0559980754511678	0.0559980754511678	0.0559980754511678
0.052951118661937	0.052951118661937	0.052951118661937	0.052951118661937	0.052951118661937	0.052951118661937
0.0503677614158028	0.0503677614158028	0.0503677614158028	0.0503677614158028	0.0503677614158028	0.0503677614158028
0.0481939003120785	0.0481939003120785	0.0481939003120785	0.0481939003120785	0.0481939003120785	0.0481939003120785
0.0463713979890379	0.0463713979890379	0.0463713979890379	0.0463713979890379	0.0463713979890379	0.0463713979890379
0.0448541459150032	0.0448541459150032	0.0448541459150032	0.0448541459150032	0.0448541459150032	0.0448541459150032
0.0436290422527494	0.0436290422527494	0.0436290422527494	0.0436290422527494	0.0436290422527494	0.0436290422527494
0.0426657388761492	0.0426657388761492	0.0426657388761492	0.0426657388761492	0.0426657388761492	0.0426657388761492
0.0419352600803046	0.0419352600803046	0.0419352600803046	0.0419352600803046	0.0419352600803046	0.0419352600803046
0.041410927937614	0.041410927937614	0.041410927937614	0.041410927937614	0.041410927937614	0.041410927937614
0.0410683622977728	0.0410683622977728	0.0410683622977728	0.0410683622977728	0.0410683622977728	0.0410683622977728
0.0408854807877727	0.0408854807877727	0.0408854807877727	0.0408854807877727	0.0408854807877727	0.0408854807877727
0.0408424988119016	0.0408424988119016	0.0408424988119016	0.0408424988119016	0.0408424988119016	0.0408424988119016
0.0409219295517443	0.0409219295517443	0.0409219295517443	0.0409219295517443	0.0409219295517443	0.0409219295517443
0.0411085839661822	0.0411085839661822	0.0411085839661822	0.0411085839661822	0.0411085839661822	0.0411085839661822
0.0413895707913928	0.0413895707913928	0.0413895707913928	0.0413895707913928	0.0413895707913928	0.0413895707913928
0.0417542965408503	0.0417542965408503	0.0417542965408503	0.0417542965408503	0.0417542965408503	0.0417542965408503
0.0421944655053255	0.0421944655053255	0.0421944655053255	0.0421944655053255	0.0421944655053255	0.0421944655053255
0.0427040797528858	0.0427040797528858	0.0427040797528858	0.0427040797528858	0.0427040797528858	0.0427040797528858
0.0432794391288948	0.0432794391288948	0.0432794391288948	0.0432794391288948	0.0432794391288948	0.0432794391288948
0.0439191412560128	0.0439191412560128	0.0439191412560128	0.0439191412560128	0.0439191412560128	0.0439191412560128
0.0445945668584921	0.0445945668584921	0.0445945668584921	0.0445945668584921	0.0445945668584921	0.0445945668584921
0.0452654177103275	0.0452654177103275	0.0452654177103275	0.0452654177103275	0.0452654177103275	0.0452654177103275
0.0459314309908991	0.0459314309908991	0.0459314309908991	0.0459314309908991	0.0459314309908991	0.0459314309908991
0.0465926132775623	0.0465926132775623	0.0465926132775623	0.0465926132775623	0.0465926132775623	0.0465926132775623
0.0472489712229424	0.0472489712229424	0.0472489712229424	0.0472489712229424	0.0472489712229424	0.0472489712229424
0.0479005115549344	0.0479005115549344	0.0479005115549344	0.0479005115549344	0.0479005115549344	0.0479005115549344
0.0485472410767031	0.0485472410767031	0.0485472410767031	0.0485472410767031	0.0485472410767031	0.0485472410767031
0.0491891666666833	0.0491891666666833	0.0491891666666833	0.0491891666666833	0.0491891666666833	0.0491891666666833
0.0498262952785797	0.0498262952785797	0.0498262952785797	0.0498262952785797	0.0498262952785797	0.0498262952785797
0.0504586339413665	0.0504586339413665	0.0504586339413665	0.0504586339413665	0.0504586339413665	0.0504586339413665
0.0510861897592881	0.0510861897592881	0.0510861897592881	0.0510861897592881	0.0510861897592881	0.0510861897592881
0.0517089699118585	0.0517089699118585	0.0517089699118585	0.0517089699118585	0.0517089699118585	0.0517089699118585
0.0523269816538617	0.0523269816538617	0.0523269816538617	0.0523269816538617	0.0523269816538617	0.0523269816538617
0.0529402323153515	0.0529402323153515	0.0529402323153515	0.0529402323153515	0.0529402323153515	0.0529402323153515
0.0535497799973728	0.0535497799973728	0.0535497799973728	0.0535497799973728	0.0535497799973728	0.0535497799973728
0.0541565711955339	0.0541565711955339	0.0541565711955339	0.0541565711955339	0.0541565711955339	0.0541565711955339
0.054759637611536	0.054759637611536	0.054759637611536	0.054759637611536	0.054759637611536	0.054759637611536
0.0553581501772629	0.0553581501772629	0.0553581501772629	0.0553581501772629	0.0553581501772629	0.0553581501772629
0.0559514381152503	0.0559514381152503	0.0559514381152503	0.0559514381152503	0.0559514381152503	0.0559514381152503
0.056538988938685	0.056538988938685	0.056538988938685	0.056538988938685	0.056538988938685	0.056538988938685
0.0571204484514066	0.0571204484514066	0.0571204484514066	0.0571204484514066	0.0571204484514066	0.0571204484514066
0.0576956207479061	0.0576956207479061	0.0576956207479061	0.0576956207479061	0.0576956207479061	0.0576956207479061
0.0582644682133259	0.0582644682133259	0.0582644682133259	0.0582644682133259	0.0582644682133259	0.0582644682133259
0.0588271115234609	0.0588271115234609	0.0588271115234609	0.0588271115234609	0.0588271115234609	0.0588271115234609
0.0593838296447576	0.0593838296447576	0.0593838296447576	0.0593838296447576	0.0593838296447576	0.0593838296447576
0.059935059834314	0.059935059834314	0.059935059834314	0.059935059834314	0.059935059834314	0.059935059834314
0.0604813976398804	0.0604813976398804	0.0604813976398804	0.0604813976398804	0.0604813976398804	0.0604813976398804
0.0610235968998585	0.0610235968998585	0.0610235968998585	0.0610235968998585	0.0610235968998585	0.0610235968998585
0.0615625697433022	0.0615625697433022	0.0615625697433022	0.0615625697433022	0.0615625697433022	0.0615625697433022
0.0620993865899169	0.0620993865899169	0.0620993865899169	0.0620993865899169	0.0620993865899169	0.0620993865899169
0.06263527615006	0.06263527615006	0.06263527615006	0.06263527615006	0.06263527615006	0.06263527615006
0.0631716254247406	0.0631716254247406	0.0631716254247406	0.0631716254247406	0.0631716254247406	0.0631716254247406
0.06370997970562	0.06370997970562	0.06370997970562	0.06370997970562	0.06370997970562	0.06370997970562
0.0642520425750105	0.0642520425750105	0.0642520425750105	0.0642520425750105	0.0642520425750105	0.0642520425750105
0.0647996759058772	0.0647996759058772	0.0647996759058772	0.0647996759058772	0.0647996759058772	0.0647996759058772
0.0653548998618362	0.0653548998618362	0.0653548998618362	0.0653548998618362	0.0653548998618362	0.0653548998618362
0.0659218855738677	0.0659218855738677	0.0659218855738677	0.0659218855738677	0.0659218855738677	0.0659218855738677
0.0665233521323429	0.0665233521323429	0.0665233521323429	0.0665233521323429	0.0665233521323429	0.0665233521323429
0.0671617295823556	0.0671617295823556	0.0671617295823556	0.0671617295823556	0.0671617295823556	0.0671617295823556
0.0678392746568196	0.0678392746568196	0.0678392746568196	0.0678392746568196	0.0678392746568196	0.0678392746568196
0.0685660925899511	0.0685660925899511	0.0685660925899511	0.0685660925899511	0.0685660925899511	0.0685660925899511
0.0693601371172672	0.0693601371172672	0.0693601371172672	0.0693601371172672	0.0693601371172672	0.0693601371172672
0.0702472104755875	0.0702472104755875	0.0702472104755875	0.0702472104755875	0.0702472104755875	0.0702472104755875
0.0712609634030321	0.0712609634030321	0.0712609634030321	0.0712609634030321	0.0712609634030321	0.0712609634030321
0.0724428951390238	0.0724428951390238	0.0724428951390238	0.0724428951390238	0.0724428951390238	0.0724428951390238
0.0738423534242864	0.0738423534242864	0.0738423534242864	0.0738423534242864	0.0738423534242864	0.0738423534242864
0.0755165345008453	0.0755165345008453	0.0755165345008453	0.0755165345008453	0.0755165345008453	0.0755165345008453
0.0775304831120275	0.0775304831120275	0.0775304831120275	0.0775304831120275	0.0775304831120275	0.0775304831120275
0.079957092502462	0.079957092502462	0.079957092502462	0.079957092502462	0.079957092502462	0.079957092502462
0.0828771044180789	0.0828771044180789	0.0828771044180789	0.0828771044180789	0.0828771044180789	0.0828771044180789
0.0863791091061104	0.0863791091061104	0.0863791091061104	0.0863791091061104	0.0863791091061104	0.0863791091061104
0.0905595453150896	0.0905595453150896	0.0905595453150896	0.0905595453150896	0.0905595453150896	0.0905595453150896
0.0955215677796245	0.0955215677796245	0.0955215677796245	0.0955215677796245	0.0955215677796245	0.0955215677796245
0.101317718010684	0.101317718010684	0.101317718010684	0.101317718010684	0.101317718010684	0.101317718010684
0.108062462974182	0.108062462974182	0.108062462974182	0.108062462974182	0.108062462974182	0.108062462974182
0.115885308414588	0.115885308414588	0.115885308414588	0.115885308414588	0.115885308414588	0.115885308414588
0.124875572161848	0.124875572161848	0.124875572161848	0.124875572161848	0.124875572161848	0.124875572161848
0.135082384131386	0.135082384131386	0.135082384131386	0.135082384131386	0.135082384131386	0.135082384131386
0.146514686324097	0.146514686324097	0.146514686324097	0.146514686324097	0.146514686324097	0.146514686324097
0.159141232826356	0.159141232826356	0.159141232826356	0.159141232826356	0.159141232826356	0.159141232826356
0.172890589810011	0.172890589810011	0.172890589810011	0.172890589810011	0.172890589810011	0.172890589810011
0.187651135532388	0.187651135532388	0.187651135532388	0.187651135532388	0.187651135532388	0.187651135532388
0.203271060336286	0.203271060336286	0.203271060336286	0.203271060336286	0.203271060336286	0.203271060336286
0.219558366649981	0.219558366649981	0.219558366649981	0.219558366649981	0.219558366649981	0.219558366649981
0.236280868987224	0.236280868987224	0.236280868987224	0.236280868987224	0.236280868987224	0.236280868987224
0.253191332168486	0.253191332168486	0.253191332168486	0.253191332168486	0.253191332168486	0.253191332168486
0.270045106525224	0.270045106525224	0.270045106525224	0.270045106525224	0.270045106525224	0.270045106525224
0.286371572819439	0.286371572819439	0.286371572819439	0.286371572819439	0.286371572819439	0.286371572819439
0.301719236845592	0.301719236845592	0.301719236845592	0.301719236845592	0.301719236845592	0.301719236845592
0.315687793061196	0.315687793061196	0.315687793061196	0.315687793061196	0.315687793061196	0.315687793061196
0.327928124586817	0.327928124586817	0.327928124586817	0.327928124586817	0.327928124586817	0.327928124586817
0.33814230320607	0.33814230320607	0.33814230320607	0.33814230320607	0.33814230320607	0.33814230320607
0.346083589365626	0.346083589365626	0.346083589365626	0.346083589365626	0.346083589365626	0.346083589365626
0.351556432175204	0.351556432175204	0.351556432175204	0.351556432175204	0.351556432175204	0.351556432175204
0.354416469407578	0.354416469407578	0.354416469407578	0.354416469407578	0.354416469407578	0.354416469407578
0.354570527498571	0.354570527498571	0.354570527498571	0.354570527498571	0.354570527498571	0.354570527498571
0.35197662154706	0.35197662154706	0.35197662154706	0.35197662154706	0.35197662154706	0.35197662154706
0.346643955314973	0.346643955314973	0.346643955314973	0.346643955314973	0.346643955314973	0.346643955314973
0.338515000961032	0.338515000961032	0.338515000961032	0.338515000961032	0.338515000961032	0.338515000961032
0.327758795993734	0.327758795993734	0.327758795993734	0.327758795993734	0.327758795993734	0.327758795993734
0.314872400099411	0.314872400099411	0.314872400099411	0.314872400099411	0.314872400099411	0.314872400099411
0.300321302338251	0.300321302338251	0.300321302338251	0.300321302338251	0.300321302338251	0.300321302338251
0.284536703273972	0.284536703273972	0.284536703273972	0.284536703273972	0.284536703273972	0.284536703273972
0.267915514973824	0.267915514973824	0.267915514973824	0.267915514973824	0.267915514973824	0.267915514973824
0.250820361008591	0.250820361008591	0.250820361008591	0.250820361008591	0.250820361008591	0.250820361008591
0.233579576452585	0.233579576452585	0.233579576452585	0.233579576452585	0.233579576452585	0.233579576452585
0.21648720788365	0.21648720788365	0.21648720788365	0.21648720788365	0.21648720788365	0.21648720788365
0.199803013383163	0.199803013383163	0.199803013383163	0.199803013383163	0.199803013383163	0.199803013383163
0.183752462536031	0.183752462536031	0.183752462536031	0.183752462536031	0.183752462536031	0.183752462536031
0.168526736430692	0.168526736430692	0.168526736430692	0.168526736430692	0.168526736430692	0.168526736430692
0.154282727659118	0.154282727659118	0.154282727659118	0.154282727659118	0.154282727659118	0.154282727659118
0.141143040316809	0.141143040316809	0.141143040316809	0.141143040316809	0.141143040316809	0.141143040316809
0.129195990002798	0.129195990002798	0.129195990002798	0.129195990002798	0.129195990002798	0.129195990002798
0.11849560381965	0.11849560381965	0.11849560381965	0.11849560381965	0.11849560381965	0.11849560381965
0.109061620373461	0.109061620373461	0.109061620373461	0.109061620373461	0.109061620373461	0.109061620373461
0.100879489773857	0.100879489773857	0.100879489773857	0.100879489773857	0.100879489773857	0.100879489773857
0.0938771961959527	0.0938771961959527	0.0938771961959527	0.0938771961959527	0.0938771961959527	0.0938771961959527
0.0879436790287653	0.0879436790287653	0.0879436790287653	0.0879436790287653	0.0879436790287653	0.0879436790287653
0.0829683513221793	0.0829683513221793	0.0829683513221793	0.0829683513221793	0.0829683513221793	0.0829683513221793
0.0787799349850666	0.0787799349850666	0.0787799349850666	0.0787799349850666	0.0787799349850666	0.0787799349850666
0.0751453471705311	0.0751453471705311	0.0751453471705311	0.0751453471705311	0.0751453471705311	0.0751453471705311
0.0717719869790478	0.0717719869790478	0.0717719869790478	0.0717719869790478	0.0717719869790478	0.0717719869790478
0.068246992759562	0.068246992759562	0.068246992759562	0.068246992759562	0.068246992759562	0.068246992759562
0.0638109544446877	0.0638109544446877	0.0638109544446877	0.0638109544446877	0.0638109544446877	0.0638109544446877
0.0575841932420777	0.0575841932420777	0.0575841932420777	0.0575841932420777	0.0575841932420777	0.0575841932420777
0.0486220918037815	0.0486220918037815	0.0486220918037815	0.0486220918037815	0.0486220918037815	0.0486220918037815
0.0359150942262446	0.0359150942262446	0.0359150942262446	0.0359150942262446	0.0359150942262446	0.0359150942262446
0.0184922909770528	0.0184922909770528	0.0184922909770528	0.0184922909770528	0.0184922909770528	0.0184922909770528
-0.00366239907967919	-0.00366239907967919	-0.00366239907967919	-0.00366239907967919	-0.00366239907967919	-0.00366239907967919
-0.0292484428637715	-0.0292484428637715	-0.0292484428637715	-0.0292484428637715	-0.0292484428637715	-0.0292484428637715
-0.0556890913090917	-0.0556890913090917	-0.0556890913090917	-0.0556890913090917	-0.0556890913090917	-0.0556890913090917
-0.0791261114012924	-0.0791261114012924	-0.0791261114012924	-0.0791261114012924	-0.0791261114012924	-0.0791261114012924
-0.0944197861778111	-0.0944197861778111	-0.0944197861778111	-0.0944197861778111	-0.0944197861778111	-0.0944197861778111
-0.0952224561717597	-0.0952224561717597	-0.0952224561717597	-0.0952224561717597	-0.0952224561717597	-0.0952224561717597
-0.0758818305271373	-0.0758818305271373	-0.0758818305271373	-0.0758818305271373	-0.0758818305271373	-0.0758818305271373
-0.0295258820113383	-0.0295258820113383	-0.0295258820113383	-0.0295258820113383	-0.0295258820113383	-0.0295258820113383
0.0488075019308849	0.0488075019308849	0.0488075019308849	0.0488075019308849	0.0488075019308849	0.0488075019308849
0.160753577296448	0.160753577296448	0.160753577296448	0.160753577296448	0.160753577296448	0.160753577296448
0.304620743523931	0.304620743523931	0.304620743523931	0.304620743523931	0.304620743523931	0.304620743523931
0.475390543493588	0.475390543493588	0.475390543493588	0.475390543493588	0.475390543493588	0.475390543493588
0.665579111940476	0.665579111940476	0.665579111940476	0.665579111940476	0.665579111940476	0.665579111940476
0.8550076893731	0.8550076893731	0.8550076893731	0.8550076893731	0.8550076893731	0.8550076893731
1.01697082775094	1.01697082775094	1.01697082775094	1.01697082775094	1.01697082775094	1.01697082775094
1.1308896102689	1.1308896102689	1.1308896102689	1.1308896102689	1.1308896102689	1.1308896102689
1.18246600603622	1.18246600603622	1.18246600603622	1.18246600603622	1.18246600603622	1.18246600603622
1.16368287007647	1.16368287007647	1.16368287007647	1.16368287007647	1.16368287007647	1.16368287007647
1.07283610809784	1.07283610809784	1.07283610809784	1.07283610809784	1.07283610809784	1.07283610809784
0.920419094424272	0.920419094424272	0.920419094424272	0.920419094424272	0.920419094424272	0.920419094424272
0.731229052992938	0.731229052992938	0.731229052992938	0.731229052992938	0.731229052992938	0.731229052992938
0.528135854129362	0.528135854129362	0.528135854129362	0.528135854129362	0.528135854129362	0.528135854129362
0.33008969877757	0.33008969877757	0.33008969877757	0.33008969877757	0.33008969877757	0.33008969877757
0.152121118500096	0.152121118500096	0.152121118500096	0.152121118500096	0.152121118500096	0.152121118500096
0.00534088621950762	0.00534088621950762	0.00534088621950762	0.00534088621950762	0.00534088621950762	0.00534088621950762
-0.104156896613482	-0.104156896613482	-0.104156896613482	-0.104156896613482	-0.104156896613482	-0.104156896613482
-0.176412731708857	-0.176412731708857	-0.176412731708857	-0.176412731708857	-0.176412731708857	-0.176412731708857
-0.213904057843184	-0.213904057843184	-0.213904057843184	-0.213904057843184	-0.213904057843184	-0.213904057843184
-0.220993367658471	-0.220993367658471	-0.220993367658471	-0.220993367658471	-0.220993367658471	-0.220993367658471
-0.203928207662165	-0.203928207662165	-0.203928207662165	-0.203928207662165	-0.203928207662165	-0.203928207662165
-0.170802980601737	-0.170802980601737	-0.170802980601737	-0.170802980601737	-0.170802980601737	-0.170802980601737
-0.129712688088367	-0.129712688088367	-0.129712688088367	-0.129712688088367	-0.129712688088367	-0.129712688088367
-0.087315625719445	-0.087315625719445	-0.087315625719445	-0.087315625719445	-0.087315625719445	-0.087315625719445
-0.0486104103340548	-0.0486104103340548	-0.0486104103340548	-0.0486104103340548	-0.0486104103340548	-0.0486104103340548
-0.0166344218658475	-0.0166344218658475	-0.0166344218658475	-0.0166344218658475	-0.0166344218658475	-0.0166344218658475
0.00753619665696098	0.00753619665696098	0.00753619665696098	0.00753619665696098	0.00753619665696098	0.00753619665696098
0.024691065055404	0.024691065055404	0.024691065055404	0.024691065055404	0.024691065055404	0.024691065055404
0.0361976387293922	0.0361976387293922	0.0361976387293922	0.0361976387293922	0.0361976387293922	0.0361976387293922
0.0436270219755019	0.0436270219755019	0.0436270219755019	0.0436270219755019	0.0436270219755019	0.0436270219755019
0.0483780231917807	0.0483780231917807	0.0483780231917807	0.0483780231917807	0.0483780231917807	0.0483780231917807
0.0515592846612346	0.0515592846612346	0.0515592846612346	0.0515592846612346	0.0515592846612346	0.0515592846612346
0.0539892825518283	0.0539892825518283	0.0539892825518283	0.0539892825518283	0.0539892825518283	0.0539892825518283
0.0561963269164856	0.0561963269164856	0.0561963269164856	0.0561963269164856	0.0561963269164856	0.0561963269164856
0.0584185616930887	0.0584185616930887	0.0584185616930887	0.0584185616930887	0.0584185616930887	0.0584185616930887
0.0607487919258575	0.0607487919258575	0.0607487919258575	0.0607487919258575	0.0607487919258575	0.0607487919258575
0.0633322484284584	0.0633322484284584	0.0633322484284584	0.0633322484284584	0.0633322484284584	0.0633322484284584
0.0662196526938011	0.0662196526938011	0.0662196526938011	0.0662196526938011	0.0662196526938011	0.0662196526938011
0.0694587481139894	0.0694587481139894	0.0694587481139894	0.0694587481139894	0.0694587481139894	0.0694587481139894
0.0730949333832514	0.0730949333832514	0.0730949333832514	0.0730949333832514	0.0730949333832514	0.0730949333832514
0.0771712624979402	0.0771712624979402	0.0771712624979402	0.0771712624979402	0.0771712624979402	0.0771712624979402
0.0817284447565326	0.0817284447565326	0.0817284447565326	0.0817284447565326	0.0817284447565326	0.0817284447565326
0.0868048447596306	0.0868048447596306	0.0868048447596306	0.0868048447596306	0.0868048447596306	0.0868048447596306
0.0924364824099603	0.0924364824099603	0.0924364824099603	0.0924364824099603	0.0924364824099603	0.0924364824099603
0.0986553815967202	0.0986553815967202	0.0986553815967202	0.0986553815967202	0.0986553815967202	0.0986553815967202
0.10546833966758	0.10546833966758	0.10546833966758	0.10546833966758	0.10546833966758	0.10546833966758
0.112915554499453	0.112915554499453	0.112915554499453	0.112915554499453	0.112915554499453	0.112915554499453
0.12104206948491	0.12104206948491	0.12104206948491	0.12104206948491	0.12104206948491	0.12104206948491
0.129881997691421	0.129881997691421	0.129881997691421	0.129881997691421	0.129881997691421	0.129881997691421
0.139458521861347	0.139458521861347	0.139458521861347	0.139458521861347	0.139458521861347	0.139458521861347
0.149783894411946	0.149783894411946	0.149783894411946	0.149783894411946	0.149783894411946	0.149783894411946
0.160859437435369	0.160859437435369	0.160859437435369	0.160859437435369	0.160859437435369	0.160859437435369
0.172675542698661	0.172675542698661	0.172675542698661	0.172675542698661	0.172675542698661	0.172675542698661
0.185211671643762	0.185211671643762	0.185211671643762	0.185211671643762	0.185211671643762	0.185211671643762
0.198436355387508	0.198436355387508	0.198436355387508	0.198436355387508	0.198436355387508	0.198436355387508
0.212307194721628	0.212307194721628	0.212307194721628	0.212307194721628	0.212307194721628	0.212307194721628
0.226770860112745	0.226770860112745	0.226770860112745	0.226770860112745	0.226770860112745	0.226770860112745
0.241763091702378	0.241763091702378	0.241763091702378	0.241763091702378	0.241763091702378	0.241763091702378
0.257208699306939	0.257208699306939	0.257208699306939	0.257208699306939	0.257208699306939	0.257208699306939
0.273021562417736	0.273021562417736	0.273021562417736	0.273021562417736	0.273021562417736	0.273021562417736
0.28910463020097	0.28910463020097	0.28910463020097	0.28910463020097	0.28910463020097	0.28910463020097
0.305349921497737	0.305349921497737	0.305349921497737	0.305349921497737	0.305349921497737	0.305349921497737
0.321638524824028	0.321638524824028	0.321638524824028	0.321638524824028	0.321638524824028	0.321638524824028
0.337859404298487	0.337859404298487	0.337859404298487	0.337859404298487	0.337859404298487	0.337859404298487
0.353923686871278	0.353923686871278	0.353923686871278	0.353923686871278	0.353923686871278	0.353923686871278
0.369654860885087	0.369654860885087	0.369654860885087	0.369654860885087	0.369654860885087	0.369654860885087
0.384879114230484	0.384879114230484	0.384879114230484	0.384879114230484	0.384879114230484	0.384879114230484
0.399433721076128	0.399433721076128	0.399433721076128	0.399433721076128	0.399433721076128	0.399433721076128
0.413167041868768	0.413167041868768	0.413167041868768	0.413167041868768	0.413167041868768	0.413167041868768
0.425938523333242	0.425938523333242	0.425938523333242	0.425938523333242	0.425938523333242	0.425938523333242
0.437618698472476	0.437618698472476	0.437618698472476	0.437618698472476	0.437618698472476	0.437618698472476
0.448089186567486	0.448089186567486	0.448089186567486	0.448089186567486	0.448089186567486	0.448089186567486
0.457242693177376	0.457242693177376	0.457242693177376	0.457242693177376	0.457242693177376	0.457242693177376
0.464983010139341	0.464983010139341	0.464983010139341	0.464983010139341	0.464983010139341	0.464983010139341
0.471225015568661	0.471225015568661	0.471225015568661	0.471225015568661	0.471225015568661	0.471225015568661
0.475894673858711	0.475894673858711	0.475894673858711	0.475894673858711	0.475894673858711	0.475894673858711
0.478929035680948	0.478929035680948	0.478929035680948	0.478929035680948	0.478929035680948	0.478929035680948
0.480276237984925	0.480276237984925	0.480276237984925	0.480276237984925	0.480276237984925	0.480276237984925
0.479895503998278	0.479895503998278	0.479895503998278	0.479895503998278	0.479895503998278	0.479895503998278
0.477756536633013	0.477756536633013	0.477756536633013	0.477756536633013	0.477756536633013	0.477756536633013
0.473727826232498	0.473727826232498	0.473727826232498	0.473727826232498	0.473727826232498	0.473727826232498
0.467826241848222	0.467826241848222	0.467826241848222	0.467826241848222	0.467826241848222	0.467826241848222
0.460201180160462	0.460201180160462	0.460201180160462	0.460201180160462	0.460201180160462	0.460201180160462
0.450999215191159	0.450999215191159	0.450999215191159	0.450999215191159	0.450999215191159	0.450999215191159
0.440364098303913	0.440364098303913	0.440364098303913	0.440364098303913	0.440364098303913	0.440364098303913
0.428436758203986	0.428436758203986	0.428436758203986	0.428436758203986	0.428436758203986	0.428436758203986
0.415355300938302	0.415355300938302	0.415355300938302	0.415355300938302	0.415355300938302	0.415355300938302
0.401255009895442	0.401255009895442	0.401255009895442	0.401255009895442	0.401255009895442	0.401255009895442
0.386268345805653	0.386268345805653	0.386268345805653	0.386268345805653	0.386268345805653	0.386268345805653
0.37052494674084	0.37052494674084	0.37052494674084	0.37052494674084	0.37052494674084	0.37052494674084
0.354151628114569	0.354151628114569	0.354151628114569	0.354151628114569	0.354151628114569	0.354151628114569
0.337272382682067	0.337272382682067	0.337272382682067	0.337272382682067	0.337272382682067	0.337272382682067
0.320008380540223	0.320008380540223	0.320008380540223	0.320008380540223	0.320008380540223	0.320008380540223
0.302477969127586	0.302477969127586	0.302477969127586	0.302477969127586	0.302477969127586	0.302477969127586
0.284796673224367	0.284796673224367	0.284796673224367	0.284796673224367	0.284796673224367	0.284796673224367
0.267077194952437	0.267077194952437	0.267077194952437	0.267077194952437	0.267077194952437	0.267077194952437
0.249429413775327	0.249429413775327	0.249429413775327	0.249429413775327	0.249429413775327	0.249429413775327
0.231960386498231	0.231960386498231	0.231960386498231	0.231960386498231	0.231960386498231	0.231960386498231
0.214774347268003	0.214774347268003	0.214774347268003	0.214774347268003	0.214774347268003	0.214774347268003
0.197972707573158	0.197972707573158	0.197972707573158	0.197972707573158	0.197972707573158	0.197972707573158
0.181654056243872	0.181654056243872	0.181654056243872	0.181654056243872	0.181654056243872	0.181654056243872
0.165914159451981	0.165914159451981	0.165914159451981	0.165914159451981	0.165914159451981	0.165914159451981
0.150845960710984	0.150845960710984	0.150845960710984	0.150845960710984	0.150845960710984	0.150845960710984
0.136539580876039	0.136539580876039	0.136539580876039	0.136539580876039	0.136539580876039	0.136539580876039
0.123082318143966	0.123082318143966	0.123082318143966	0.123082318143966	0.123082318143966	0.123082318143966
0.110524061016643	0.110524061016643	0.110524061016643	0.110524061016643	0.110524061016643	0.110524061016643
0.0988253632469235	0.0988253632469235	0.0988253632469235	0.0988253632469235	0.0988253632469235	0.0988253632469235
0.0879615055524067	0.0879615055524067	0.0879615055524067	0.0879615055524067	0.0879615055524067	0.0879615055524067
0.0779075192292861	0.0779075192292861	0.0779075192292861	0.0779075192292861	0.0779075192292861	0.0779075192292861
0.0686373530402363	0.0686373530402363	0.0686373530402363	0.0686373530402363	0.0686373530402363	0.0686373530402363
0.0601238732144121	0.0601238732144121	0.0601238732144121	0.0601238732144121	0.0601238732144121	0.0601238732144121
0.0523388634474488	0.0523388634474488	0.0523388634474488	0.0523388634474488	0.0523388634474488	0.0523388634474488
0.045253024901462	0.045253024901462	0.045253024901462	0.045253024901462	0.045253024901462	0.045253024901462
0.0388359762050477	0.0388359762050477	0.0388359762050477	0.0388359762050477	0.0388359762050477	0.0388359762050477
0.0330562534532824	0.0330562534532824	0.0330562534532824	0.0330562534532824	0.0330562534532824	0.0330562534532824
0.0278813102077227	0.0278813102077227	0.0278813102077227	0.0278813102077227	0.0278813102077227	0.0278813102077227
0.023277517496406	0.023277517496406	0.023277517496406	0.023277517496406	0.023277517496406	0.023277517496406
0.0192101638138495	0.0192101638138495	0.0192101638138495	0.0192101638138495	0.0192101638138495	0.0192101638138495
0.0156434551210514	0.0156434551210514	0.0156434551210514	0.0156434551210514	0.0156434551210514	0.0156434551210514
0.0125405148454897	0.0125405148454897	0.0125405148454897	0.0125405148454897	0.0125405148454897	0.0125405148454897
0.00986338388112334	0.00986338388112334	0.00986338388112334	0.00986338388112334	0.00986338388112334	0.00986338388112334
0.00757302058839104	0.00757302058839104	0.00757302058839104	0.00757302058839104	0.00757302058839104	0.00757302058839104
0.00562930079421237	0.00562930079421237	0.00562930079421237	0.00562930079421237	0.00562930079421237	0.00562930079421237
0.00399101779198707	0.00399101779198707	0.00399101779198707	0.00399101779198707	0.00399101779198707	0.00399101779198707
0.00261588234159543	0.00261588234159543	0.00261588234159543	0.00261588234159543	0.00261588234159543	0.00261588234159543
0.00146052266939756	0.00146052266939756	0.00146052266939756	0.00146052266939756	0.00146052266939756	0.00146052266939756
0.000480978020509115	0.000480978020509115	0.000480978020509115	0.000480978020509115	0.000480978020509115	0.000480978020509115
-0.000344870304683109	-0.000344870304683109	-0.000344870304683109	-0.000344870304683109	-0.000344870304683109	-0.000344870304683109
-0.00102629408457577	-0.00102629408457577	-0.00102629408457577	-0.00102629408457577	-0.00102629408457577	-0.00102629408457577
-0.00157611254312379	-0.00157611254312379	-0.00157611254312379	-0.00157611254312379	-0.00157611254312379	-0.00157611254312379
-0.00200671585159473	-0.00200671585159473	-0.00200671585159473	-0.00200671585159473	-0.00200671585159473	-0.00200671585159473
-0.00233006512856854	-0.00233006512856854	-0.00233006512856854	-0.00233006512856854	-0.00233006512856854	-0.00233006512856854
-0.00255769243993764	-0.00255769243993764	-0.00255769243993764	-0.00255769243993764	-0.00255769243993764	-0.00255769243993764
-0.00270070079890711	-0.00270070079890711	-0.00270070079890711	-0.00270070079890711	-0.00270070079890711	-0.00270070079890711
-0.00276976416599428	-0.00276976416599428	-0.00276976416599428	-0.00276976416599428	-0.00276976416599428	-0.00276976416599428
-0.00277512744902941	-0.00277512744902941	-0.00277512744902941	-0.00277512744902941	-0.00277512744902941	-0.00277512744902941
-0.00272660650315493	-0.00272660650315493	-0.00272660650315493	-0.00272660650315493	-0.00272660650315493	-0.00272660650315493
-0.00263358813082587	-0.00263358813082587	-0.00263358813082587	-0.00263358813082587	-0.00263358813082587	-0.00263358813082587
-0.00250503008180963	-0.00250503008180963	-0.00250503008180963	-0.00250503008180963	-0.00250503008180963	-0.00250503008180963
-0.00234946105318651	-0.00234946105318651	-0.00234946105318651	-0.00234946105318651	-0.00234946105318651	-0.00234946105318651
-0.0021749806893489	-0.0021749806893489	-0.0021749806893489	-0.0021749806893489	-0.0021749806893489	-0.0021749806893489
-0.00198925958200191	-0.00198925958200191	-0.00198925958200191	-0.00198925958200191	-0.00198925958200191	-0.00198925958200191
-0.00179953927016313	-0.00179953927016313	-0.00179953927016313	-0.00179953927016313	-0.00179953927016313	-0.00179953927016313
-0.0016126322401625	-0.0016126322401625	-0.0016126322401625	-0.0016126322401625	-0.0016126322401625	-0.0016126322401625
-0.00143492192564287	-0.00143492192564287	-0.00143492192564287	-0.00143492192564287	-0.00143492192564287	-0.00143492192564287
-0.00126778079077422	-0.00126778079077422	-0.00126778079077422	-0.00126778079077422	-0.00126778079077422	-0.00126778079077422
-0.00110304838662961	-0.00110304838662961	-0.00110304838662961	-0.00110304838662961	-0.00110304838662961	-0.00110304838662961
-0.000940491993671855	-0.000940491993671855	-0.000940491993671855	-0.000940491993671855	-0.000940491993671855	-0.000940491993671855
-0.000780283465761644	-0.000780283465761644	-0.000780283465761644	-0.000780283465761644	-0.000780283465761644	-0.000780283465761644
-0.000622565750034332	-0.000622565750034332	-0.000622565750034332	-0.000622565750034332	-0.000622565750034332	-0.000622565750034332
-0.000467452886900588	-0.000467452886900588	-0.000467452886900588	-0.000467452886900588	-0.000467452886900588	-0.000467452886900588
-0.00031503001004618	-0.00031503001004618	-0.00031503001004618	-0.00031503001004618	-0.00031503001004618	-0.00031503001004618
-0.000165353346431973	-0.000165353346431973	-0.000165353346431973	-0.000165353346431973	-0.000165353346431973	-0.000165353346431973
-1.84502162937639e-05	-1.84502162937639e-05	-1.84502162937639e-05	-1.84502162937639e-05	-1.84502162937639e-05	-1.84502162937639e-05
0.000125680966857555	0.000125680966857555	0.000125680966857555	0.000125680966857555	0.000125680966857555	0.000125680966857555
0.000267070696236105	0.000267070696236105	0.000267070696236105	0.000267070696236105	0.000267070696236105	0.000267070696236105
0.000405778371780685	0.000405778371780685	0.000405778371780685	0.000405778371780685	0.000405778371780685	0.000405778371780685
0.000541892300155167	0.000541892300155167	0.000541892300155167	0.000541892300155167	0.000541892300155167	0.000541892300155167
0.000675529694748433	0.000675529694748433	0.000675529694748433	0.000675529694748433	0.000675529694748433	0.000675529694748433
0.000806836675674216	0.000806836675674216	0.000806836675674216	0.000806836675674216	0.000806836675674216	0.000806836675674216
0.000935988269771149	0.000935988269771149	0.000935988269771149	0.000935988269771149	0.000935988269771149	0.000935988269771149
0.00106318841060299	0.00106318841060299	0.00106318841060299	0.00106318841060299	0.00106318841060299	0.00106318841060299
0.00118866993845818	0.00118866993845818	0.00118866993845818	0.00118866993845818	0.00118866993845818	0.00118866993845818
0.00131269460035027	0.00131269460035027	0.00131269460035027	0.00131269460035027	0.00131269460035027	0.00131269460035027
0.00143555305001752	0.00143555305001752	0.00143555305001752	0.00143555305001752	0.00143555305001752	0.00143555305001752
0.00155756484792346	0.00155756484792346	0.00155756484792346	0.00155756484792346	0.00155756484792346	0.00155756484792346
0.00167907846125631	0.00167907846125631	0.00167907846125631	0.00167907846125631	0.00167907846125631	0.00167907846125631
0.00180047126392913	0.00180047126392913	0.00180047126392913	0.00180047126392913	0.00180047126392913	0.00180047126392913
0.00192214953658038	0.00192214953658038	0.00192214953658038	0.00192214953658038	0.00192214953658038	0.00192214953658038
0.00204454846657282	0.00204454846657282	0.00204454846657282	0.00204454846657282	0.00204454846657282	0.00204454846657282
0.00217116742455853	0.00217116742455853	0.00217116742455853	0.00217116742455853	0.00217116742455853	0.00217116742455853
0.00231358655525632	0.00231358655525632	0.00231358655525632	0.00231358655525632	0.00231358655525632	0.00231358655525632
0.00246629371499174	0.00246629371499174	0.00246629371499174	0.00246629371499174	0.00246629371499174	0.00246629371499174
0.00262579821802694	0.00262579821802694	0.00262579821802694	0.00262579821802694	0.00262579821802694	0.00262579821802694
0.00279327298759313	0.00279327298759313	0.00279327298759313	0.00279327298759313	0.00279327298759313	0.00279327298759313
0.00297455455589102	0.00297455455589102	0.00297455455589102	0.00297455455589102	0.00297455455589102	0.00297455455589102
0.00318014306409087	0.00318014306409087	0.00318014306409087	0.00318014306409087	0.00318014306409087	0.00318014306409087
0.00342520226233212	0.00342520226233212	0.00342520226233212	0.00342520226233212	0.00342520226233212	0.00342520226233212
0.00372955950972348	0.00372955950972348	0.00372955950972348	0.00372955950972348	0.00372955950972348	0.00372955950972348
0.00411770577434351	0.00411770577434351	0.00411770577434351	0.00411770577434351	0.00411770577434351	0.00411770577434351
0.00461879563323958	0.00461879563323958	0.00461879563323958	0.00461879563323958	0.00461879563323958	0.00461879563323958
0.00526664727242876	0.00526664727242876	0.00526664727242876	0.00526664727242876	0.00526664727242876	0.00526664727242876
0.00609974248689754	0.00609974248689754	0.00609974248689754	0.00609974248689754	0.00609974248689754	0.00609974248689754
0.0071612266806016	0.0071612266806016	0.0071612266806016	0.0071612266806016	0.0071612266806016	0.0071612266806016
0.00849890886646593	0.00849890886646593	0.00849890886646593	0.00849890886646593	0.00849890886646593	0.00849890886646593
0.0101314654718403	0.0101314654718403	0.0101314654718403	0.0101314654718403	0.0101314654718403	0.0101314654718403
0.0121163319862453	0.0121163319862453	0.0121163319862453	0.0121163319862453	0.0121163319862453	0.0121163319862453
0.0145986696061565	0.0145986696061565	0.0145986696061565	0.0145986696061565	0.0145986696061565	0.0145986696061565
0.0177097813261743	0.0177097813261743	0.0177097813261743	0.0177097813261743	0.0177097813261743	0.0177097813261743
0.0215659010912581	0.0215659010912581	0.0215659010912581	0.0215659010912581	0.0215659010912581	0.0215659010912581
0.0262681937967254	0.0262681937967254	0.0262681937967254	0.0262681937967254	0.0262681937967254	0.0262681937967254
0.0319027552882523	0.0319027552882523	0.0319027552882523	0.0319027552882523	0.0319027552882523	0.0319027552882523
0.0385406123618732	0.0385406123618732	0.0385406123618732	0.0385406123618732	0.0385406123618732	0.0385406123618732
0.0462377227639812	0.0462377227639812	0.0462377227639812	0.0462377227639812	0.0462377227639812	0.0462377227639812
0.0550349751913278	0.0550349751913278	0.0550349751913278	0.0550349751913278	0.0550349751913278	0.0550349751913278
0.0649581892910229	0.0649581892910229	0.0649581892910229	0.0649581892910229	0.0649581892910229	0.0649581892910229
0.0760181156605346	0.0760181156605346	0.0760181156605346	0.0760181156605346	0.0760181156605346	0.0760181156605346
0.0882104358476902	0.0882104358476902	0.0882104358476902	0.0882104358476902	0.0882104358476902	0.0882104358476902
0.101515762350674	0.101515762350674	0.101515762350674	0.101515762350674	0.101515762350674	0.101515762350674
0.115898135097318	0.115898135097318	0.115898135097318	0.115898135097318	0.115898135097318	0.115898135097318
0.13120972436275	0.13120972436275	0.13120972436275	0.13120972436275	0.13120972436275	0.13120972436275
0.147201241401213	0.147201241401213	0.147201241401213	0.147201241401213	0.147201241401213	0.147201241401213
0.163610583539945	0.163610583539945	0.163610583539945	0.163610583539945	0.163610583539945	0.163610583539945
0.180150835910288	0.180150835910288	0.180150835910288	0.180150835910288	0.180150835910288	0.180150835910288
0.196510271447694	0.196510271447694	0.196510271447694	0.196510271447694	0.196510271447694	0.196510271447694
0.212352350891719	0.212352350891719	0.212352350891719	0.212352350891719	0.212352350891719	0.212352350891719
0.227315722786029	0.227315722786029	0.227315722786029	0.227315722786029	0.227315722786029	0.227315722786029
0.241014223478395	0.241014223478395	0.241014223478395	0.241014223478395	0.241014223478395	0.241014223478395
0.253063727498693	0.253063727498693	0.253063727498693	0.253063727498693	0.253063727498693	0.253063727498693
0.263150422132352	0.263150422132352	0.263150422132352	0.263150422132352	0.263150422132352	0.263150422132352
0.270964835454601	0.270964835454601	0.270964835454601	0.270964835454601	0.270964835454601	0.270964835454601
0.276268188755096	0.276268188755096	0.276268188755096	0.276268188755096	0.276268188755096	0.276268188755096
0.278897285153268	0.278897285153268	0.278897285153268	0.278897285153268	0.278897285153268	0.278897285153268
0.278764509598328	0.278764509598328	0.278764509598328	0.278764509598328	0.278764509598328	0.278764509598328
0.275857828869263	0.275857828869263	0.275857828869263	0.275857828869263	0.275857828869263	0.275857828869263
0.270240791574841	0.270240791574841	0.270240791574841	0.270240791574841	0.270240791574841	0.270240791574841
0.262046028559446	0.262046028559446	0.262046028559446	0.262046028559446	0.262046028559446	0.262046028559446
0.251321926476638	0.251321926476638	0.251321926476638	0.251321926476638	0.251321926476638	0.251321926476638
0.238418290152211	0.238418290152211	0.238418290152211	0.238418290152211	0.238418290152211	0.238418290152211
0.22379435391988	0.22379435391988	0.22379435391988	0.22379435391988	0.22379435391988	0.22379435391988
0.20787761397378	0.20787761397378	0.20787761397378	0.20787761397378	0.20787761397378	0.20787761397378
0.191063828368466	0.191063828368466	0.191063828368466	0.191063828368466	0.191063828368466	0.191063828368466
0.173717017018908	0.173717017018908	0.173717017018908	0.173717017018908	0.173717017018908	0.173717017018908
0.156169461700496	0.156169461700496	0.156169461700496	0.156169461700496	0.156169461700496	0.156169461700496
0.138721706049038	0.138721706049038	0.138721706049038	0.138721706049038	0.138721706049038	0.138721706049038
0.121642555560761	0.121642555560761	0.121642555560761	0.121642555560761	0.121642555560761	0.121642555560761
0.10516907759231	0.10516907759231	0.10516907759231	0.10516907759231	0.10516907759231	0.10516907759231
0.0895066013607471	0.0895066013607471	0.0895066013607471	0.0895066013607471	0.0895066013607471	0.0895066013607471
0.0748287179435548	0.0748287179435548	0.0748287179435548	0.0748287179435548	0.0748287179435548	0.0748287179435548
0.0612772802786331	0.0612772802786331	0.0612772802786331	0.0612772802786331	0.0612772802786331	0.0612772802786331
0.0489624031642995	0.0489624031642995	0.0489624031642995	0.0489624031642995	0.0489624031642995	0.0489624031642995
0.0379624632592906	0.0379624632592906	0.0379624632592906	0.0379624632592906	0.0379624632592906	0.0379624632592906
0.0282011617585076	0.0282011617585076	0.0282011617585076	0.0282011617585076	0.0282011617585076	0.0282011617585076
0.0196110345772565	0.0196110345772565	0.0196110345772565	0.0196110345772565	0.0196110345772565	0.0196110345772565
0.0122488450576692	0.0122488450576692	0.0122488450576692	0.0122488450576692	0.0122488450576692	0.0122488450576692
0.00608251711668956	0.00608251711668956	0.00608251711668956	0.00608251711668956	0.00608251711668956	0.00608251711668956
0.00099054351098804	0.00099054351098804	0.00099054351098804	0.00099054351098804	0.00099054351098804	0.00099054351098804
-0.00323801416303865	-0.00323801416303865	-0.00323801416303865	-0.00323801416303865	-0.00323801416303865	-0.00323801416303865
-0.00690352546926737	-0.00690352546926737	-0.00690352546926737	-0.00690352546926737	-0.00690352546926737	-0.00690352546926737
-0.0103957911318484	-0.0103957911318484	-0.0103957911318484	-0.0103957911318484	-0.0103957911318484	-0.0103957911318484
-0.0141940430352059	-0.0141940430352059	-0.0141940430352059	-0.0141940430352059	-0.0141940430352059	-0.0141940430352059
-0.0188669442240376	-0.0188669442240376	-0.0188669442240376	-0.0188669442240376	-0.0188669442240376	-0.0188669442240376
-0.0250422185018448	-0.0250422185018448	-0.0250422185018448	-0.0250422185018448	-0.0250422185018448	-0.0250422185018448
-0.0334815909437512	-0.0334815909437512	-0.0334815909437512	-0.0334815909437512	-0.0334815909437512	-0.0334815909437512
-0.0459436025649923	-0.0459436025649923	-0.0459436025649923	-0.0459436025649923	-0.0459436025649923	-0.0459436025649923
-0.0634034755949754	-0.0634034755949754	-0.0634034755949754	-0.0634034755949754	-0.0634034755949754	-0.0634034755949754
-0.0856865867047764	-0.0856865867047764	-0.0856865867047764	-0.0856865867047764	-0.0856865867047764	-0.0856865867047764
-0.11146846700714	-0.11146846700714	-0.11146846700714	-0.11146846700714	-0.11146846700714	-0.11146846700714
-0.138274802056478	-0.138274802056478	-0.138274802056478	-0.138274802056478	-0.138274802056478	-0.138274802056478
-0.162532988392697	-0.162532988392697	-0.162532988392697	-0.162532988392697	-0.162532988392697	-0.162532988392697
-0.179601583233621	-0.179601583233621	-0.179601583233621	-0.179601583233621	-0.179601583233621	-0.179601583233621
-0.182284853097337	-0.182284853097337	-0.182284853097337	-0.182284853097337	-0.182284853097337	-0.182284853097337
-0.164042146100254	-0.164042146100254	-0.164042146100254	-0.164042146100254	-0.164042146100254	-0.164042146100254
-0.119707767788819	-0.119707767788819	-0.119707767788819	-0.119707767788819	-0.119707767788819	-0.119707767788819
-0.0454909811395103	-0.0454909811395103	-0.0454909811395103	-0.0454909811395103	-0.0454909811395103	-0.0454909811395103
0.0610239934411546	0.0610239934411546	0.0610239934411546	0.0610239934411546	0.0610239934411546	0.0610239934411546
0.200931801914209	0.200931801914209	0.200931801914209	0.200931801914209	0.200931801914209	0.200931801914209
0.371275340509802	0.371275340509802	0.371275340509802	0.371275340509802	0.371275340509802	0.371275340509802
0.557838977019168	0.557838977019168	0.557838977019168	0.557838977019168	0.557838977019168	0.557838977019168
0.743246188296015	0.743246188296015	0.743246188296015	0.743246188296015	0.743246188296015	0.743246188296015
0.908725345471537	0.908725345471537	0.908725345471537	0.908725345471537	0.908725345471537	0.908725345471537
1.03410971395441	1.03410971395441	1.03410971395441	1.03410971395441	1.03410971395441	1.03410971395441
1.09783745343078	1.09783745343078	1.09783745343078	1.09783745343078	1.09783745343078	1.09783745343078
1.08273694219025	1.08273694219025	1.08273694219025	1.08273694219025	1.08273694219025	1.08273694219025
0.994206972004975	0.994206972004975	0.994206972004975	0.994206972004975	0.994206972004975	0.994206972004975
0.846408460784478	0.846408460784478	0.846408460784478	0.846408460784478	0.846408460784478	0.846408460784478
0.657969312452147	0.657969312452147	0.657969312452147	0.657969312452147	0.657969312452147	0.657969312452147
0.451991354866652	0.451991354866652	0.451991354866652	0.451991354866652	0.451991354866652	0.451991354866652
0.253828641098444	0.253828641098444	0.253828641098444	0.253828641098444	0.253828641098444	0.253828641098444
0.0790322795416479	0.0790322795416479	0.0790322795416479	0.0790322795416479	0.0790322795416479	0.0790322795416479
-0.0628802808286067	-0.0628802808286067	-0.0628802808286067	-0.0628802808286067	-0.0628802808286067	-0.0628802808286067
-0.16668708938613	-0.16668708938613	-0.16668708938613	-0.16668708938613	-0.16668708938613	-0.16668708938613
-0.231555746598323	-0.231555746598323	-0.231555746598323	-0.231555746598323	-0.231555746598323	-0.231555746598323
-0.260919944327698	-0.260919944327698	-0.260919944327698	-0.260919944327698	-0.260919944327698	-0.260919944327698
-0.260061881894374	-0.260061881894374	-0.260061881894374	-0.260061881894374	-0.260061881894374	-0.260061881894374
-0.237559482365375	-0.237559482365375	-0.237559482365375	-0.237559482365375	-0.237559482365375	-0.237559482365375
-0.201977832770766	-0.201977832770766	-0.201977832770766	-0.201977832770766	-0.201977832770766	-0.201977832770766
-0.160621291350418	-0.160621291350418	-0.160621291350418	-0.160621291350418	-0.160621291350418	-0.160621291350418
-0.119533487554011	-0.119533487554011	-0.119533487554011	-0.119533487554011	-0.119533487554011	-0.119533487554011
-0.0834973220410268	-0.0834973220410268	-0.0834973220410268	-0.0834973220410268	-0.0834973220410268	-0.0834973220410268
-0.0556094566989608	-0.0556094566989608	-0.0556094566989608	-0.0556094566989608	-0.0556094566989608	-0.0556094566989608
-0.0354364637562887	-0.0354364637562887	-0.0354364637562887	-0.0354364637562887	-0.0354364637562887	-0.0354364637562887
-0.0214690083977518	-0.0214690083977518	-0.0214690083977518	-0.0214690083977518	-0.0214690083977518	-0.0214690083977518
-0.0122888589471011	-0.0122888589471011	-0.0122888589471011	-0.0122888589471011	-0.0122888589471011	-0.0122888589471011
-0.00657091645933394	-0.00657091645933394	-0.00657091645933394	-0.00657091645933394	-0.00657091645933394	-0.00657091645933394
-0.00308321472069401	-0.00308321472069401	-0.00308321472069401	-0.00308321472069401	-0.00308321472069401	-0.00308321472069401
-0.0006869596568293	-0.0006869596568293	-0.0006869596568293	-0.0006869596568293	-0.0006869596568293	-0.0006869596568293
0.00141755769676044	0.00141755769676044	0.00141755769676044	0.00141755769676044	0.00141755769676044	0.00141755769676044
0.00344591946397543	0.00344591946397543	0.00344591946397543	0.00344591946397543	0.00344591946397543	0.00344591946397543
0.00555746221660847	0.00555746221660847	0.00555746221660847	0.00555746221660847	0.00555746221660847	0.00555746221660847
0.0078832708295159	0.0078832708295159	0.0078832708295159	0.0078832708295159	0.0078832708295159	0.0078832708295159
0.0105261784806183	0.0105261784806183	0.0105261784806183	0.0105261784806183	0.0105261784806183	0.0105261784806183
0.0135607666508993	0.0135607666508993	0.0135607666508993	0.0135607666508993	0.0135607666508993	0.0135607666508993
0.017033365124407	0.017033365124407	0.017033365124407	0.017033365124407	0.017033365124407	0.017033365124407
0.020962051988253	0.020962051988253	0.020962051988253	0.020962051988253	0.020962051988253	0.020962051988253
0.0253626189668045	0.0253626189668045	0.0253626189668045	0.0253626189668045	0.0253626189668045	0.0253626189668045
0.0302910919138999	0.0302910919138999	0.0302910919138999	0.0302910919138999	0.0302910919138999	0.0302910919138999
0.035798684846905	0.035798684846905	0.035798684846905	0.035798684846905	0.035798684846905	0.035798684846905
0.0419300334640103	0.0419300334640103	0.0419300334640103	0.0419300334640103	0.0419300334640103	0.0419300334640103
0.0487231981466157	0.0487231981466157	0.0487231981466157	0.0487231981466157	0.0487231981466157	0.0487231981466157
0.0562096639593305	0.0562096639593305	0.0562096639593305	0.0562096639593305	0.0562096639593305	0.0562096639593305
0.0644143406499729	0.0644143406499729	0.0644143406499729	0.0644143406499729	0.0644143406499729	0.0644143406499729
0.0733555626495708	0.0733555626495708	0.0733555626495708	0.0733555626495708	0.0733555626495708	0.0733555626495708
0.0830450890723613	0.0830450890723613	0.0830450890723613	0.0830450890723613	0.0830450890723613	0.0830450890723613
0.0934881037157907	0.0934881037157907	0.0934881037157907	0.0934881037157907	0.0934881037157907	0.0934881037157907
0.104683215060515	0.104683215060515	0.104683215060515	0.104683215060515	0.104683215060515	0.104683215060515
0.116622456270398	0.116622456270398	0.116622456270398	0.116622456270398	0.116622456270398	0.116622456270398
0.129291285192516	0.129291285192516	0.129291285192516	0.129291285192516	0.129291285192516	0.129291285192516
0.142709067023538	0.142709067023538	0.142709067023538	0.142709067023538	0.142709067023538	0.142709067023538
0.156911008550872	0.156911008550872	0.156911008550872	0.156911008550872	0.156911008550872	0.156911008550872
0.171774762423846	0.171774762423846	0.171774762423846	0.171774762423846	0.171774762423846	0.171774762423846
0.187170398550634	0.187170398550634	0.187170398550634	0.187170398550634	0.187170398550634	0.187170398550634
0.202968333653275	0.202968333653275	0.202968333653275	0.202968333653275	0.202968333653275	0.202968333653275
0.219039331267673	0.219039331267673	0.219039331267673	0.219039331267673	0.219039331267673	0.219039331267673
0.235254501743596	0.235254501743596	0.235254501743596	0.235254501743596	0.235254501743596	0.235254501743596
0.251485302244679	0.251485302244679	0.251485302244679	0.251485302244679	0.251485302244679	0.251485302244679
0.267603536748421	0.267603536748421	0.267603536748421	0.267603536748421	0.267603536748421	0.267603536748421
0.283481356046185	0.283481356046185	0.283481356046185	0.283481356046185	0.283481356046185	0.283481356046185
0.298991257743202	0.298991257743202	0.298991257743202	0.298991257743202	0.298991257743202	0.298991257743202
0.314006086258564	0.314006086258564	0.314006086258564	0.314006086258564	0.314006086258564	0.314006086258564
0.328399032825232	0.328399032825232	0.328399032825232	0.328399032825232	0.328399032825232	0.328399032825232
0.342043635490031	0.342043635490031	0.342043635490031	0.342043635490031	0.342043635490031	0.342043635490031
0.354813779113649	0.354813779113649	0.354813779113649	0.354813779113649	0.354813779113649	0.354813779113649
0.366583695370641	0.366583695370641	0.366583695370641	0.366583695370641	0.366583695370641	0.366583695370641
0.377227962749427	0.377227962749427	0.377227962749427	0.377227962749427	0.377227962749427	0.377227962749427
0.386621506552293	0.386621506552293	0.386621506552293	0.386621506552293	0.386621506552293	0.386621506552293
0.394639598895387	0.394639598895387	0.394639598895387	0.394639598895387	0.394639598895387	0.394639598895387
0.401157858708725	0.401157858708725	0.401157858708725	0.401157858708725	0.401157858708725	0.401157858708725
0.406052251736188	0.406052251736188	0.406052251736188	0.406052251736188	0.406052251736188	0.406052251736188
0.40919909053552	0.40919909053552	0.40919909053552	0.40919909053552	0.40919909053552	0.40919909053552
0.410477085968135	0.410477085968135	0.410477085968135	0.410477085968135	0.410477085968135	0.410477085968135
0.409846078370207	0.409846078370207	0.409846078370207	0.409846078370207	0.409846078370207	0.409846078370207
0.407364761158671	0.407364761158671	0.407364761158671	0.407364761158671	0.407364761158671	0.407364761158671
0.403102694175078	0.403102694175078	0.403102694175078	0.403102694175078	0.403102694175078	0.403102694175078
0.397136267812062	0.397136267812062	0.397136267812062	0.397136267812062	0.397136267812062	0.397136267812062
0.389548703013342	0.389548703013342	0.389548703013342	0.389548703013342	0.389548703013342	0.389548703013342
0.380430051273721	0.380430051273721	0.380430051273721	0.380430051273721	0.380430051273721	0.380430051273721
0.369877194639088	0.369877194639088	0.369877194639088	0.369877194639088	0.369877194639088	0.369877194639088
0.35799384570641	0.35799384570641	0.35799384570641	0.35799384570641	0.35799384570641	0.35799384570641
0.344890547623746	0.344890547623746	0.344890547623746	0.344890547623746	0.344890547623746	0.344890547623746
0.330684674090234	0.330684674090234	0.330684674090234	0.330684674090234	0.330684674090234	0.330684674090234
0.3155004293561	0.3155004293561	0.3155004293561	0.3155004293561	0.3155004293561	0.3155004293561
0.299468848222652	0.299468848222652	0.299468848222652	0.299468848222652	0.299468848222652	0.299468848222652
0.282727796042282	0.282727796042282	0.282727796042282	0.282727796042282	0.282727796042282	0.282727796042282
0.265421968718467	0.265421968718467	0.265421968718467	0.265421968718467	0.265421968718467	0.265421968718467
0.24770289270577	0.24770289270577	0.24770289270577	0.24770289270577	0.24770289270577	0.24770289270577
0.229728925009834	0.229728925009834	0.229728925009834	0.229728925009834	0.229728925009834	0.229728925009834
0.211665253187391	0.211665253187391	0.211665253187391	0.211665253187391	0.211665253187391	0.211665253187391
0.193683895346254	0.193683895346254	0.193683895346254	0.193683895346254	0.193683895346254	0.193683895346254
0.175963700145321	0.175963700145321	0.175963700145321	0.175963700145321	0.175963700145321	0.175963700145321
0.158685768077648	0.158685768077648	0.158685768077648	0.158685768077648	0.158685768077648	0.158685768077648
0.141918056724559	0.141918056724559	0.141918056724559	0.141918056724559	0.141918056724559	0.141918056724559
0.125713244198283	0.125713244198283	0.125713244198283	0.125713244198283	0.125713244198283	0.125713244198283
0.110142352917358	0.110142352917358	0.110142352917358	0.110142352917358	0.110142352917358	0.110142352917358
0.0952664525090888	0.0952664525090888	0.0952664525090888	0.0952664525090888	0.0952664525090888	0.0952664525090888
0.0811366598095472	0.0811366598095472	0.0811366598095472	0.0811366598095472	0.0811366598095472	0.0811366598095472
0.0677941388635738	0.0677941388635738	0.0677941388635738	0.0677941388635738	0.0677941388635738	0.0677941388635738
0.0552701009247764	0.0552701009247764	0.0552701009247764	0.0552701009247764	0.0552701009247764	0.0552701009247764
0.0435858044555306	0.0435858044555306	0.0435858044555306	0.0435858044555306	0.0435858044555306	0.0435858044555306
0.0327525551269797	0.0327525551269797	0.0327525551269797	0.0327525551269797	0.0327525551269797	0.0327525551269797
0.0227717058190345	0.0227717058190345	0.0227717058190345	0.0227717058190345	0.0227717058190345	0.0227717058190345
0.0136346566203737	0.0136346566203737	0.0136346566203737	0.0136346566203737	0.0136346566203737	0.0136346566203737
0.00532285482844364	0.00532285482844364	0.00532285482844364	0.00532285482844364	0.00532285482844364	0.00532285482844364
-0.00219220505054157	-0.00219220505054157	-0.00219220505054157	-0.00219220505054157	-0.00219220505054157	-0.00219220505054157
-0.00894898130160049	-0.00894898130160049	-0.00894898130160049	-0.00894898130160049	-0.00894898130160049	-0.00894898130160049
-0.0149958850009835	-0.0149958850009835	-0.0149958850009835	-0.0149958850009835	-0.0149958850009835	-0.0149958850009835
-0.0203912800161736	-0.0203912800161736	-0.0203912800161736	-0.0203912800161736	-0.0203912800161736	-0.0203912800161736
-0.0251786275165515	-0.0251786275165515	-0.0251786275165515	-0.0251786275165515	-0.0251786275165515	-0.0251786275165515
-0.029382569570733	-0.029382569570733	-0.029382569570733	-0.029382569570733	-0.029382569570733	-0.029382569570733
-0.03305225726572	-0.03305225726572	-0.03305225726572	-0.03305225726572	-0.03305225726572	-0.03305225726572
-0.0362346895678443	-0.0362346895678443	-0.0362346895678443	-0.0362346895678443	-0.0362346895678443	-0.0362346895678443
-0.0389744850286594	-0.0389744850286594	-0.0389744850286594	-0.0389744850286594	-0.0389744850286594	-0.0389744850286594
-0.0413138817849409	-0.0413138817849409	-0.0413138817849409	-0.0413138817849409	-0.0413138817849409	-0.0413138817849409
-0.0432927375586865	-0.0432927375586865	-0.0432927375586865	-0.0432927375586865	-0.0432927375586865	-0.0432927375586865
-0.0449485296571156	-0.0449485296571156	-0.0449485296571156	-0.0449485296571156	-0.0449485296571156	-0.0449485296571156
-0.0463163549726699	-0.0463163549726699	-0.0463163549726699	-0.0463163549726699	-0.0463163549726699	-0.0463163549726699
-0.047428929983013	-0.047428929983013	-0.047428929983013	-0.047428929983013	-0.047428929983013	-0.047428929983013
-0.0483165907510301	-0.0483165907510301	-0.0483165907510301	-0.0483165907510301	-0.0483165907510301	-0.0483165907510301
-0.049007292924829	-0.049007292924829	-0.049007292924829	-0.049007292924829	-0.049007292924829	-0.049007292924829
-0.049526611737739	-0.049526611737739	-0.049526611737739	-0.049526611737739	-0.049526611737739	-0.049526611737739
-0.0498977420083116	-0.0498977420083116	-0.0498977420083116	-0.0498977420083116	-0.0498977420083116	-0.0498977420083116
-0.0501414981403203	-0.0501414981403203	-0.0501414981403203	-0.0501414981403203	-0.0501414981403203	-0.0501414981403203
-0.0502763141227603	-0.0502763141227603	-0.0502763141227603	-0.0502763141227603	-0.0502763141227603	-0.0502763141227603
-0.0503182435298494	-0.0503182435298494	-0.0503182435298494	-0.0503182435298494	-0.0503182435298494	-0.0503182435298494
-0.0502763129164199	-0.0502763129164199	-0.0502763129164199	-0.0502763129164199	-0.0502763129164199	-0.0502763129164199
-0.0501493486046611	-0.0501493486046611	-0.0501493486046611	-0.0501493486046611	-0.0501493486046611	-0.0501493486046611
-0.0499485736973371	-0.0499485736973371	-0.0499485736973371	-0.0499485736973371	-0.0499485736973371	-0.0499485736973371
-0.0496852754778235	-0.0496852754778235	-0.0496852754778235	-0.0496852754778235	-0.0496852754778235	-0.0496852754778235
-0.0493699126124582	-0.0493699126124582	-0.0493699126124582	-0.0493699126124582	-0.0493699126124582	-0.0493699126124582
-0.0490121151505418	-0.0490121151505418	-0.0490121151505418	-0.0490121151505418	-0.0490121151505418	-0.0490121151505418
-0.0486206845243373	-0.0486206845243373	-0.0486206845243373	-0.0486206845243373	-0.0486206845243373	-0.0486206845243373
-0.0482035935490705	-0.0482035935490705	-0.0482035935490705	-0.0482035935490705	-0.0482035935490705	-0.0482035935490705
-0.0477679864229298	-0.0477679864229298	-0.0477679864229298	-0.0477679864229298	-0.0477679864229298	-0.0477679864229298
-0.0473201787270658	-0.0473201787270658	-0.0473201787270658	-0.0473201787270658	-0.0473201787270658	-0.0473201787270658
-0.046865657425592	-0.046865657425592	-0.046865657425592	-0.046865657425592	-0.046865657425592	-0.046865657425592
-0.0464090808655844	-0.0464090808655844	-0.0464090808655844	-0.0464090808655844	-0.0464090808655844	-0.0464090808655844
-0.0459542787770816	-0.0459542787770816	-0.0459542787770816	-0.0459542787770816	-0.0459542787770816	-0.0459542787770816
-0.0455042522730846	-0.0455042522730846	-0.0455042522730846	-0.0455042522730846	-0.0455042522730846	-0.0455042522730846
-0.045061173849557	-0.045061173849557	-0.045061173849557	-0.045061173849557	-0.045061173849557	-0.045061173849557
-0.0446263873854252	-0.0446263873854252	-0.0446263873854252	-0.0446263873854252	-0.0446263873854252	-0.0446263873854252
-0.044200408142578	-0.044200408142578	-0.044200408142578	-0.044200408142578	-0.044200408142578	-0.044200408142578
-0.0437829227658667	-0.0437829227658667	-0.0437829227658667	-0.0437829227658667	-0.0437829227658667	-0.0437829227658667
-0.0433727892831052	-0.0433727892831052	-0.0433727892831052	-0.0433727892831052	-0.0433727892831052	-0.0433727892831052
-0.0429680371050701	-0.0429680371050701	-0.0429680371050701	-0.0429680371050701	-0.0429680371050701	-0.0429680371050701
-0.0425658670255005	-0.0425658670255005	-0.0425658670255005	-0.0425658670255005	-0.0425658670255005	-0.0425658670255005
-0.042162651221098	-0.042162651221098	-0.042162651221098	-0.042162651221098	-0.042162651221098	-0.042162651221098
-0.0417539332515268	-0.0417539332515268	-0.0417539332515268	-0.0417539332515268	-0.0417539332515268	-0.0417539332515268
-0.0413349518098438	-0.0413349518098438	-0.0413349518098438	-0.0413349518098438	-0.0413349518098438	-0.0413349518098438
-0.0409078349177197	-0.0409078349177197	-0.0409078349177197	-0.0409078349177197	-0.0409078349177197	-0.0409078349177197
-0.040476451321021	-0.040476451321021	-0.040476451321021	-0.040476451321021	-0.040476451321021	-0.040476451321021
-0.040043459775089	-0.040043459775089	-0.040043459775089	-0.040043459775089	-0.040043459775089	-0.040043459775089
-0.0396109364536531	-0.0396109364536531	-0.0396109364536531	-0.0396109364536531	-0.0396109364536531	-0.0396109364536531
-0.0391803749488309	-0.0391803749488309	-0.0391803749488309	-0.0391803749488309	-0.0391803749488309	-0.0391803749488309
-0.0387526862711278	-0.0387526862711278	-0.0387526862711278	-0.0387526862711278	-0.0387526862711278	-0.0387526862711278
-0.0383281988494377	-0.0383281988494377	-0.0383281988494377	-0.0383281988494377	-0.0383281988494377	-0.0383281988494377
-0.0379066585310423	-0.0379066585310423	-0.0379066585310423	-0.0379066585310423	-0.0379066585310423	-0.0379066585310423
-0.0374872285816114	-0.0374872285816114	-0.0374872285816114	-0.0374872285816114	-0.0374872285816114	-0.0374872285816114
-0.037068489685203	-0.037068489685203	-0.037068489685203	-0.037068489685203	-0.037068489685203	-0.037068489685203
-0.0366484399442631	-0.0366484399442631	-0.0366484399442631	-0.0366484399442631	-0.0366484399442631	-0.0366484399442631
-0.0362244948796256	-0.0362244948796256	-0.0362244948796256	-0.0362244948796256	-0.0362244948796256	-0.0362244948796256
-0.0357934874305131	-0.0357934874305131	-0.0357934874305131	-0.0357934874305131	-0.0357934874305131	-0.0357934874305131
-0.0353516679545356	-0.0353516679545356	-0.0353516679545356	-0.0353516679545356	-0.0353516679545356	-0.0353516679545356
-0.0348947042276915	-0.0348947042276915	-0.0348947042276915	-0.0348947042276915	-0.0348947042276915	-0.0348947042276915
-0.0344176814443672	-0.0344176814443672	-0.0344176814443672	-0.0344176814443672	-0.0344176814443672	-0.0344176814443672
-0.0339151022173374	-0.0339151022173374	-0.0339151022173374	-0.0339151022173374	-0.0339151022173374	-0.0339151022173374
-0.0333808865777646	-0.0333808865777646	-0.0333808865777646	-0.0333808865777646	-0.0333808865777646	-0.0333808865777646
-0.0328083719751995	-0.0328083719751995	-0.0328083719751995	-0.0328083719751995	-0.0328083719751995	-0.0328083719751995
-0.0321940116444802	-0.0321940116444802	-0.0321940116444802	-0.0321940116444802	-0.0321940116444802	-0.0321940116444802
-0.0315943135282214	-0.0315943135282214	-0.0315943135282214	-0.0315943135282214	-0.0315943135282214	-0.0315943135282214
-0.0309717757590316	-0.0309717757590316	-0.0309717757590316	-0.0309717757590316	-0.0309717757590316	-0.0309717757590316
-0.0302489443923384	-0.0302489443923384	-0.0302489443923384	-0.0302489443923384	-0.0302489443923384	-0.0302489443923384
-0.0293491214863889	-0.0293491214863889	-0.0293491214863889	-0.0293491214863889	-0.0293491214863889	-0.0293491214863889
-0.0281963651022496	-0.0281963651022496	-0.0281963651022496	-0.0281963651022496	-0.0281963651022496	-0.0281963651022496
-0.026715489303807	-0.026715489303807	-0.026715489303807	-0.026715489303807	-0.026715489303807	-0.026715489303807
-0.0248320641577667	-0.0248320641577667	-0.0248320641577667	-0.0248320641577667	-0.0248320641577667	-0.0248320641577667
-0.0224724157336541	-0.0224724157336541	-0.0224724157336541	-0.0224724157336541	-0.0224724157336541	-0.0224724157336541
-0.0195636261038144	-0.0195636261038144	-0.0195636261038144	-0.0195636261038144	-0.0195636261038144	-0.0195636261038144
-0.016033533343412	-0.016033533343412	-0.016033533343412	-0.016033533343412	-0.016033533343412	-0.016033533343412
-0.0118107315304309	-0.0118107315304309	-0.0118107315304309	-0.0118107315304309	-0.0118107315304309	-0.0118107315304309
-0.00682457074567522	-0.00682457074567522	-0.00682457074567522	-0.00682457074567522	-0.00682457074567522	-0.00682457074567522
-0.00100515707276805	-0.00100515707276805	-0.00100515707276805	-0.00100515707276805	-0.00100515707276805	-0.00100515707276805
0.00571664740184763	0.00571664740184763	0.00571664740184763	0.00571664740184763	0.00571664740184763	0.00571664740184763
0.0134092245889095	0.0134092245889095	0.0134092245889095	0.0134092245889095	0.0134092245889095	0.0134092245889095
0.0221402003963354	0.0221402003963354	0.0221402003963354	0.0221402003963354	0.0221402003963354	0.0221402003963354
0.0319764447292236	0.0319764447292236	0.0319764447292236	0.0319764447292236	0.0319764447292236	0.0319764447292236
0.042984071489853	0.042984071489853	0.042984071489853	0.042984071489853	0.042984071489853	0.042984071489853
0.0552284385776828	0.0552284385776828	0.0552284385776828	0.0552284385776828	0.0552284385776828	0.0552284385776828
0.0687732197610019	0.0687732197610019	0.0687732197610019	0.0687732197610019	0.0687732197610019	0.0687732197610019
0.0835193007175545	0.0835193007175545	0.0835193007175545	0.0835193007175545	0.0835193007175545	0.0835193007175545
0.0992060137698426	0.0992060137698426	0.0992060137698426	0.0992060137698426	0.0992060137698426	0.0992060137698426
0.115584673891962	0.115584673891962	0.115584673891962	0.115584673891962	0.115584673891962	0.115584673891962
0.132382130117556	0.132382130117556	0.132382130117556	0.132382130117556	0.132382130117556	0.132382130117556
0.14930076553982	0.14930076553982	0.14930076553982	0.14930076553982	0.14930076553982	0.14930076553982
0.166018497311497	0.166018497311497	0.166018497311497	0.166018497311497	0.166018497311497	0.166018497311497
0.182188776644878	0.182188776644878	0.182188776644878	0.182188776644878	0.182188776644878	0.182188776644878
0.197440588811805	0.197440588811805	0.197440588811805	0.197440588811805	0.197440588811805	0.197440588811805
0.211378453143667	0.211378453143667	0.211378453143667	0.211378453143667	0.211378453143667	0.211378453143667
0.223582423031407	0.223582423031407	0.223582423031407	0.223582423031407	0.223582423031407	0.223582423031407
0.233643539808535	0.233643539808535	0.233643539808535	0.233643539808535	0.233643539808535	0.233643539808535
0.241304479684798	0.241304479684798	0.241304479684798	0.241304479684798	0.241304479684798	0.241304479684798
0.246338832511674	0.246338832511674	0.246338832511674	0.246338832511674	0.246338832511674	0.246338832511674
0.248593440247695	0.248593440247695	0.248593440247695	0.248593440247695	0.248593440247695	0.248593440247695
0.247995428319146	0.247995428319146	0.247995428319146	0.247995428319146	0.247995428319146	0.247995428319146
0.244552205620058	0.244552205620058	0.244552205620058	0.244552205620058	0.244552205620058	0.244552205620058
0.238351464512216	0.238351464512216	0.238351464512216	0.238351464512216	0.238351464512216	0.238351464512216
0.229561180825151	0.229561180825151	0.229561180825151	0.229561180825151	0.229561180825151	0.229561180825151
0.218429613856149	0.218429613856149	0.218429613856149	0.218429613856149	0.218429613856149	0.218429613856149
0.205285306370244	0.205285306370244	0.205285306370244	0.205285306370244	0.205285306370244	0.205285306370244
0.190533250994382	0.190533250994382	0.190533250994382	0.190533250994382	0.190533250994382	0.190533250994382
0.174530434706531	0.174530434706531	0.174530434706531	0.174530434706531	0.174530434706531	0.174530434706531
0.157695098672276	0.157695098672276	0.157695098672276	0.157695098672276	0.157695098672276	0.157695098672276
0.140457493332338	0.140457493332338	0.140457493332338	0.140457493332338	0.140457493332338	0.140457493332338
0.123200548867213	0.123200548867213	0.123200548867213	0.123200548867213	0.123200548867213	0.123200548867213
0.106259875197178	0.106259875197178	0.106259875197178	0.106259875197178	0.106259875197178	0.106259875197178
0.0899237619822892	0.0899237619822892	0.0899237619822892	0.0899237619822892	0.0899237619822892	0.0899237619822892
0.0744331786223807	0.0744331786223807	0.0744331786223807	0.0744331786223807	0.0744331786223807	0.0744331786223807
0.059981774257066	0.059981774257066	0.059981774257066	0.059981774257066	0.059981774257066	0.059981774257066
0.0467158777657378	0.0467158777657378	0.0467158777657378	0.0467158777657378	0.0467158777657378	0.0467158777657378
0.0347344977675673	0.0347344977675673	0.0347344977675673	0.0347344977675673	0.0347344977675673	0.0347344977675673
0.0240361082543827	0.0240361082543827	0.0240361082543827	0.0240361082543827	0.0240361082543827	0.0240361082543827
0.0145905770689295	0.0145905770689295	0.0145905770689295	0.0145905770689295	0.0145905770689295	0.0145905770689295
0.00646104559512467	0.00646104559512467	0.00646104559512467	0.00646104559512467	0.00646104559512467	0.00646104559512467
-0.000362750304782555	-0.000362750304782555	-0.000362750304782555	-0.000362750304782555	-0.000362750304782555	-0.000362750304782555
-0.00596817396883098	-0.00596817396883098	-0.00596817396883098	-0.00596817396883098	-0.00596817396883098	-0.00596817396883098
-0.0105196879353485	-0.0105196879353485	-0.0105196879353485	-0.0105196879353485	-0.0105196879353485	-0.0105196879353485
-0.0142588539429515	-0.0142588539429515	-0.0142588539429515	-0.0142588539429515	-0.0142588539429515	-0.0142588539429515
-0.0175043329305447	-0.0175043329305447	-0.0175043329305447	-0.0175043329305447	-0.0175043329305447	-0.0175043329305447
-0.0206518850373219	-0.0206518850373219	-0.0206518850373219	-0.0206518850373219	-0.0206518850373219	-0.0206518850373219
-0.0241743696027655	-0.0241743696027655	-0.0241743696027655	-0.0241743696027655	-0.0241743696027655	-0.0241743696027655
-0.0286216233986226	-0.0286216233986226	-0.0286216233986226	-0.0286216233986226	-0.0286216233986226	-0.0286216233986226
-0.0345059441734736	-0.0345059441734736	-0.0345059441734736	-0.0345059441734736	-0.0345059441734736	-0.0345059441734736
-0.0435483476044815	-0.0435483476044815	-0.0435483476044815	-0.0435483476044815	-0.0435483476044815	-0.0435483476044815
-0.0572895434356218	-0.0572895434356218	-0.0572895434356218	-0.0572895434356218	-0.0572895434356218	-0.0572895434356218
-0.0761571996583016	-0.0761571996583016	-0.0761571996583016	-0.0761571996583016	-0.0761571996583016	-0.0761571996583016
-0.0994659425113597	-0.0994659425113597	-0.0994659425113597	-0.0994659425113597	-0.0994659425113597	-0.0994659425113597
-0.125417356481066	-0.125417356481066	-0.125417356481066	-0.125417356481066	-0.125417356481066	-0.125417356481066
-0.151103212821763	-0.151103212821763	-0.151103212821763	-0.151103212821763	-0.151103212821763	-0.151103212821763
-0.172541417935533	-0.172541417935533	-0.172541417935533	-0.172541417935533	-0.172541417935533	-0.172541417935533
-0.182607616213339	-0.182607616213339	-0.182607616213339	-0.182607616213339	-0.182607616213339	-0.182607616213339
-0.17407671532265	-0.17407671532265	-0.17407671532265	-0.17407671532265	-0.17407671532265	-0.17407671532265
-0.141016473342035	-0.141016473342035	-0.141016473342035	-0.141016473342035	-0.141016473342035	-0.141016473342035
-0.0787874987611668	-0.0787874987611668	-0.0787874987611668	-0.0787874987611668	-0.0787874987611668	-0.0787874987611668
0.0159567495191815	0.0159567495191815	0.0159567495191815	0.0159567495191815	0.0159567495191815	0.0159567495191815
0.145289845110847	0.145289845110847	0.145289845110847	0.145289845110847	0.145289845110847	0.145289845110847
0.308491906458839	0.308491906458839	0.308491906458839	0.308491906458839	0.308491906458839	0.308491906458839
0.492607257279568	0.492607257279568	0.492607257279568	0.492607257279568	0.492607257279568	0.492607257279568
0.679961509537202	0.679961509537202	0.679961509537202	0.679961509537202	0.679961509537202	0.679961509537202
0.851252297446869	0.851252297446869	0.851252297446869	0.851252297446869	0.851252297446869	0.851252297446869
0.985549277474368	0.985549277474368	0.985549277474368	0.985549277474368	0.985549277474368	0.985549277474368
1.06029412833644	1.06029412833644	1.06029412833644	1.06029412833644	1.06029412833644	1.06029412833644
1.05653202657192	1.05653202657192	1.05653202657192	1.05653202657192	1.05653202657192	1.05653202657192
0.977988358448035	0.977988358448035	0.977988358448035	0.977988358448035	0.977988358448035	0.977988358448035
0.838066199556282	0.838066199556282	0.838066199556282	0.838066199556282	0.838066199556282	0.838066199556282
0.654603617484448	0.654603617484448	0.654603617484448	0.654603617484448	0.654603617484448	0.654603617484448
0.449877602473816	0.449877602473816	0.449877602473816	0.449877602473816	0.449877602473816	0.449877602473816
0.249971629181854	0.249971629181854	0.249971629181854	0.249971629181854	0.249971629181854	0.249971629181854
0.0730743516098062	0.0730743516098062	0.0730743516098062	0.0730743516098062	0.0730743516098062	0.0730743516098062
-0.0711421313787414	-0.0711421313787414	-0.0711421313787414	-0.0711421313787414	-0.0711421313787414	-0.0711421313787414
-0.177123025130974	-0.177123025130974	-0.177123025130974	-0.177123025130974	-0.177123025130974	-0.177123025130974
-0.243894935523085	-0.243894935523085	-0.243894935523085	-0.243894935523085	-0.243894935523085	-0.243894935523085
-0.27450284628631	-0.27450284628631	-0.27450284628631	-0.27450284628631	-0.27450284628631	-0.27450284628631
-0.274422845967029	-0.274422845967029	-0.274422845967029	-0.274422845967029	-0.274422845967029	-0.274422845967029
-0.252451961847061	-0.252451961847061	-0.252451961847061	-0.252451961847061	-0.252451961847061	-0.252451961847061
-0.216810645545726	-0.216810645545726	-0.216810645545726	-0.216810645545726	-0.216810645545726	-0.216810645545726
-0.174799287769576	-0.174799287769576	-0.174799287769576	-0.174799287769576	-0.174799287769576	-0.174799287769576
-0.132798218312338	-0.132798218312338	-0.132798218312338	-0.132798218312338	-0.132798218312338	-0.132798218312338
-0.0962483684537073	-0.0962483684537073	-0.0962483684537073	-0.0962483684537073	-0.0962483684537073	-0.0962483684537073
-0.0679417785878877	-0.0679417785878877	-0.0679417785878877	-0.0679417785878877	-0.0679417785878877	-0.0679417785878877
-0.0470843824966433	-0.0470843824966433	-0.0470843824966433	-0.0470843824966433	-0.0470843824966433	-0.0470843824966433
-0.0324678195000327	-0.0324678195000327	-0.0324678195000327	-0.0324678195000327	-0.0324678195000327	-0.0324678195000327
-0.0228091115178198	-0.0228091115178198	-0.0228091115178198	-0.0228091115178198	-0.0228091115178198	-0.0228091115178198
-0.0167506630694736	-0.0167506630694736	-0.0167506630694736	-0.0167506630694736	-0.0167506630694736	-0.0167506630694736
-0.0128602612741545	-0.0128602612741545	-0.0128602612741545	-0.0128602612741545	-0.0128602612741545	-0.0128602612741545
-0.00980397649237658	-0.00980397649237658	-0.00980397649237658	-0.00980397649237658	-0.00980397649237658	-0.00980397649237658
-0.00711452255406297	-0.00711452255406297	-0.00711452255406297	-0.00711452255406297	-0.00711452255406297	-0.00711452255406297
-0.0045382946836014	-0.0045382946836014	-0.0045382946836014	-0.0045382946836014	-0.0045382946836014	-0.0045382946836014
-0.00186508799207891	-0.00186508799207891	-0.00186508799207891	-0.00186508799207891	-0.00186508799207891	-0.00186508799207891
0.00106249456292762	0.00106249456292762	0.00106249456292762	0.00106249456292762	0.00106249456292762	0.00106249456292762
0.0043490421773556	0.0043490421773556	0.0043490421773556	0.0043490421773556	0.0043490421773556	0.0043490421773556
0.00804633620065204	0.00804633620065204	0.00804633620065204	0.00804633620065204	0.00804633620065204	0.00804633620065204
0.0121556306208094	0.0121556306208094	0.0121556306208094	0.0121556306208094	0.0121556306208094	0.0121556306208094
0.0167077538436513	0.0167077538436513	0.0167077538436513	0.0167077538436513	0.0167077538436513	0.0167077538436513
0.0217631880801782	0.0217631880801782	0.0217631880801782	0.0217631880801782	0.0217631880801782	0.0217631880801782
0.0273695267322737	0.0273695267322737	0.0273695267322737	0.0273695267322737	0.0273695267322737	0.0273695267322737
0.0335697811331274	0.0335697811331274	0.0335697811331274	0.0335697811331274	0.0335697811331274	0.0335697811331274
0.0404023805472251	0.0404023805472251	0.0404023805472251	0.0404023805472251	0.0404023805472251	0.0404023805472251
0.0479011721703597	0.0479011721703597	0.0479011721703597	0.0479011721703597	0.0479011721703597	0.0479011721703597
0.0560954211296195	0.0560954211296195	0.0560954211296195	0.0560954211296195	0.0560954211296195	0.0560954211296195
0.0650098104834007	0.0650098104834007	0.0650098104834007	0.0650098104834007	0.0650098104834007	0.0650098104834007
0.0746644412213942	0.0746644412213942	0.0746644412213942	0.0746644412213942	0.0746644412213942	0.0746644412213942
0.0850748322645998	0.0850748322645998	0.0850748322645998	0.0850748322645998	0.0850748322645998	0.0850748322645998
0.09625192046531	0.09625192046531	0.09625192046531	0.09625192046531	0.09625192046531	0.09625192046531
0.108215966198922	0.108215966198922	0.108215966198922	0.108215966198922	0.108215966198922	0.108215966198922
0.121011071897792	0.121011071897792	0.121011071897792	0.121011071897792	0.121011071897792	0.121011071897792
0.134580863323328	0.134580863323328	0.134580863323328	0.134580863323328	0.134580863323328	0.134580863323328
0.14885209885593	0.14885209885593	0.14885209885593	0.14885209885593	0.14885209885593	0.14885209885593
0.163745945755479	0.163745945755479	0.163745945755479	0.163745945755479	0.163745945755479	0.163745945755479
0.179177980161319	0.179177980161319	0.179177980161319	0.179177980161319	0.179177980161319	0.179177980161319
0.195058187092278	0.195058187092278	0.195058187092278	0.195058187092278	0.195058187092278	0.195058187092278
0.211290960446647	0.211290960446647	0.211290960446647	0.211290960446647	0.211290960446647	0.211290960446647
0.227775103002199	0.227775103002199	0.227775103002199	0.227775103002199	0.227775103002199	0.227775103002199
0.24440382641617	0.24440382641617	0.24440382641617	0.24440382641617	0.24440382641617	0.24440382641617
0.261064751225281	0.261064751225281	0.261064751225281	0.261064751225281	0.261064751225281	0.261064751225281
0.277639906845713	0.277639906845713	0.277639906845713	0.277639906845713	0.277639906845713	0.277639906845713
0.294005731573132	0.294005731573132	0.294005731573132	0.294005731573132	0.294005731573132	0.294005731573132
0.310033072582666	0.310033072582666	0.310033072582666	0.310033072582666	0.310033072582666	0.310033072582666
