1.07943599744855
1.03674663355149
0.925121369640105
0.760892703033177
0.566741119576812
0.363378878522523
0.169310302154792
0.000377220275099122
-0.134994244518678
-0.233990555516002
-0.296439098603392
-0.324781302630745
-0.324072639411337
-0.301763149829008
-0.265508075712346
-0.223149158590707
-0.180983982545386
-0.143409452170979
-0.112921792575387
-0.0901165493798113
-0.073901789025936
-0.0629234926184792
-0.0556968077822727
-0.0509374566024298
-0.047610639499449
-0.0449310352292134
-0.042362800882991
-0.0396195718874346
-0.0366644620045818
-0.0335581181978514
-0.0301338498882992
-0.026343674845252
-0.0221466837407369
-0.017503149718694
-0.0123745283949767
-0.00672345785735112
-0.000513758665496689
0.00628956614899445
0.0137203310826168
0.0218076059932166
0.0305572204132368
0.0399994352564578
0.0501610065424609
0.0610575562126839
0.0726935721304214
0.0850624080808251
0.098146283770903
0.11191628482952
0.126332362807399
0.141343335177118
0.156886885333112
0.172889562591673
0.189266782190951
0.205922825290952
0.222750838973538
0.239632836242428
0.256439696023199
0.273031163163283
0.289255848431971
0.304989650535822
0.320125430796185
0.334489173152309
0.347920210597633
0.360272906989485
0.371416657049088
0.381235886361558
0.389630051375903
0.396513639405022
0.401816168625709
0.405482188078651
0.407471277668426
0.407758048163505
0.406332141196254
0.403198229262928
0.398375022458221
0.391786686386035
0.383491684224194
0.373659036415768
0.362452705778773
0.350031597506172
0.336549559165875
0.322155380700741
0.306992794428574
0.291200475042127
0.274912039609098
0.258256047572135
0.24135600074883
0.224330343331725
0.207292461888307
0.190350685361012
0.173608285067221
0.157163474699265
0.14110941032442
0.125534190384909
0.110520855697905
0.0961473894555235
0.0824867172248315
0.0696067069478419
0.0575701689415133
0.0464135800790179
0.0361121456361442
0.026635990190345
0.0179547866733812
0.0100377184387314
0.00285347926159141
-0.00362972666112488
-0.00944418471078634
-0.014622669847044
-0.0191984466078314
-0.0232052691093642
-0.0266773810461409
-0.0296495156909421
-0.0321568958948307
-0.0342352340871523
-0.0359207322755347
-0.0372500820458879
-0.0382604645624049
-0.0389895505675604
-0.0394755003821117
-0.0397569639050988
-0.0398730806138436
-0.039854253711142
-0.0397071068925478
-0.0394435315563088
-0.0390752081262486
-0.038613263424973
-0.0380682706738694
-0.0374502494931074
-0.0367686659016381
-0.0360324323171948
-0.0352499075562926
-0.0344288968342286
-0.0335766517650814
-0.032699870361712
-0.031804697035763
-0.0308967225976589
-0.0299809842566061
-0.0290619656205931
-0.0281435966963899
-0.0272292538895487
-0.026321408517843
-0.0254151577237465
-0.0245088044730202
-0.0236031128609156
-0.0226987511249881
-0.0217962916450974
-0.0208962109434079
-0.019998889684388
-0.0191046126748102
-0.0182135688637518
-0.0173258513425943
-0.0164414573450232
-0.0155602882470287
-0.0146821495669051
-0.0138067509652511
-0.0129337062449695
-0.012062533351268
-0.0111926543716578
-0.010323395535955
-0.00945398721628005
-0.00858356392705717
-0.00771116432501534
-0.0068357312091879
-0.00595611152091224
-0.00507105634383026
-0.00417922090388811
-0.00327916456933619
-0.00236774308548532
-0.00142671803263283
-0.000454032433931273
0.000552861104197166
0.00160359394042942
0.00271488139854159
0.00391052276740878
0.0052214013010054
0.00668548421840492
0.00834782270377993
0.010260551906402
0.012482890940642
0.0150811428859699
0.0181286947869548
0.0217014420591503
0.0258201378731165
0.0306230524533613
0.0362681285862826
0.0428836981056628
0.0505684818926687
0.0593915898758511
0.0693925210311457
0.0805811633818726
0.0929377939987357
0.106413078999824
0.12092807355061
0.136374221863952
0.152613357200091
0.169481337703938
0.186871514191397
0.204393365217565
0.221571497684301
0.237973958379491
0.253212233977047
0.266941251036906
0.278859376005035
0.288708415213424
0.296273614880093
0.301383661109086
0.303910679890474
0.303770237100355
0.300921338500854
0.295366429740122
0.287065083438205
0.276259357885
0.263438104403462
0.249056635133003
0.233536182056318
0.217263896999384
0.200592851631461
0.183842037465095
0.167296365856114
0.151206668003627
0.135789694950031
0.121228117581001
0.107670526625501
0.0952314326557733
0.0839912660873459
0.0739963771790309
0.0652590360329217
0.0577571914101623
0.0513972676155194
0.0460885908450244
0.041719834335155
0.0381124974481936
0.035020905672228
0.0321322106211511
0.0290997742060536
0.025131427516871
0.0191887344072905
0.0103427429607645
-0.0022244903923726
-0.0192199008749044
-0.0411328372031314
-0.0666281443034162
-0.0925679112968445
-0.114964690309059
-0.128999857515596
-0.129023613141884
-0.108566698413759
-0.0624221195437775
0.0148172700151915
0.126274169032662
0.270516128762346
0.44155555294216
0.628849697794221
0.817699156228089
0.984023728286034
1.10379590031825
1.16023432585532
1.14382602507762
1.05284456683084
0.901691856283691
0.713885616248182
0.511287787378064
0.313808616209978
0.139223912036378
-0.00168149403933432
-0.105533884919632
-0.171848745634788
-0.202887615937734
-0.203658090304061
-0.181850523448359
-0.145718675404807
-0.10335424838479
-0.0613891593916336
-0.0243620019208464
0.00528195403988474
0.0271903522355094
0.0424320117196709
0.0525272676482661
0.0590780657242186
0.0633975053161179
0.0665098394582191
0.0691504748504435
0.0717659718583776
0.0745140445132743
0.0773897755745174
0.0805556702749033
0.0840654390593695
0.0879644021200289
0.0922963059009612
0.0971033230982132
0.102426052659798
0.108303519785697
0.114773175927856
0.12185975995792
0.129592328253383
0.13801506621619
0.147161518745737
0.157054419796099
0.167705692376025
0.179116448548938
0.19127698943294
0.204166805200805
0.217754575079984
0.231998167352602
0.246844639355461
0.262230237480037
0.278080397172483
0.294309742933625
0.31084515167198
0.327609415046227
0.344434158692513
0.361152659597196
0.377604216908366
0.393634151935838
0.409093808151158
0.423840551187596
0.437737768840153
0.450654871065557
0.462467289982264
0.473056479870459
0.482309917172051
0.490121100490682
0.49638955059172
0.501020810402259
0.503926445011125
0.50501310667522
0.504217789056281
0.501601312131981
0.497239225313969
0.49121281226132
0.483609090880532
0.474520813325526
0.464046465997648
0.452290269545671
0.439362178865787
0.425377883101617
0.410458805644204
0.394732104132015
0.378330670450942
0.3613931307343
0.344063845362831
0.326492908964698
0.308836150415491
0.291255132838221
0.273917153603325
0.256995244328667
0.240633100051808
0.22485127285088
0.209704832196065
0.195246008512473
0.181518765562453
0.168558800445583
0.156393543598673
0.145042158795767
0.134515543148141
0.124816327104303
0.115938874449995
0.107869282308189
0.100585381139092
0.0940567347401419
0.0882446402460094
0.0831021281285976
0.0785739621970423
0.0745966395977118
0.0711200703991893
0.0681270692693852
0.0655738965039194
0.0634182362686816
0.0616201642595767
0.0601421477025248
0.0589490453534618
0.0580081074983391
0.0572889759531229
0.0567636840637954
0.056406656706354
0.0561947102868114
0.0561070527411961
0.0561252835355514
0.0562333936659367
0.0564177656584262
0.0566671735691099
0.0569826986347928
0.0573644601186732
0.057800366576243
0.0582793257653482
0.0587912544804702
0.0593270785527261
0.0598787328498684
0.0604391612762851
0.061002316773
0.0615631613176722
0.0621176659245967
0.0626628106447036
0.0631965845655589
0.063717985811364
0.0642270215429558
0.0647247079578069
0.0652130702900255
0.065695142810355
0.0661749688261749
0.0666574958928399
0.0671411397047443
0.0676221734480272
0.0680995463852621
0.0685724336698201
0.0690402363458689
0.0695025813483736
0.0699593215030965
0.0704105355265968
0.0708565280262306
0.0712978295001516
0.0717351963373103
0.0721696108174542
0.0726022811111282
0.0730346412796738
0.0734683512752302
0.0739052969407333
0.0743475900099163
0.0747975681073092
0.0752577947482396
0.0757356000698908
0.0762467798542723
0.0767943377692972
0.0773875146613388
0.0780432809886182
0.0787863368212046
0.0796491118410145
0.0806717653418123
0.0819021862292102
0.0833959930206683
0.0852165338454942
0.0874348864448435
0.0901298560873282
0.0933473514637193
0.0971953598406286
0.101830374561112
0.107383306129455
0.113959482211175
0.12163864763302
0.130474964382969
0.14049701161023
0.151707785625243
0.164084699899679
0.177579585066441
0.192118688919658
0.207642411004475
0.224319018977598
0.241693738519687
0.25920172626962
0.276330092847631
0.292617902855308
0.307656174875597
0.321087881472795
0.332607949192557
0.341963258561892
0.348952644089164
0.353426894264091
0.355288751557748
0.354492912422564
0.351046027292322
0.345006700582163
0.336485490688581
0.325644909989424
0.31269933100834
0.297938739244275
0.28182645829879
0.264834700528994
0.247389586269408
0.229871143831957
0.212613309505974
0.1959039275582
0.17998475023278
0.165051437751268
0.151253558312626
0.138694588093221
0.127431911246826
0.117476819904626
0.108794514175206
0.101300815901098
0.0948132308119495
0.0893350013846761
0.0848243927892668
0.0810847523886997
0.0777645097389416
0.0743571765889489
0.0702013468806663
0.0644806967490279
0.0562395470182115
0.0445479443716582
0.0280887201632641
0.00657907775927763
-0.0188501098558482
-0.045654300079456
-0.0698752806906826
-0.0865328955587047
-0.0888229529134636
-0.0698428434657496
-0.0241150595006734
0.0524110432640092
0.162359245677897
0.306676944074895
0.479124511584158
0.665930438113571
0.849835849617903
1.01020718096893
1.12303656021468
1.16617988637598
1.13487591029406
1.03423359048938
0.87665588548276
0.681839753795311
0.476367185300156
0.282216642730591
0.112808826583527
-0.0226419676233953
-0.119693414079014
-0.178675156678644
-0.203009186869352
-0.198971634624714
-0.174944538862755
-0.138564501128476
-0.0967137595669931
-0.0555201889235431
-0.0202529866613918
0.00703080285543034
0.0271005725118583
0.0410023887090901
0.04996387987982
0.0553942364882389
0.0588724573529598
0.0614848089680993
0.0636369196117139
0.0656639273755051
0.0678109156588813
0.0702329131689571
0.0729948939205529
0.076095228756698
0.07959259146221
0.0835341942052049
0.0879613159254514
0.0929137892847695
0.0984300006670308
0.104546890178158
0.111299951646126
0.11872323262096
0.126837915630244
0.135665050846206
0.14523160854765
0.155552647932796
0.166631296099669
0.178458748046095
0.191014266669701
0.204265182767919
0.21816689503798
0.232662870076918
0.247684642381571
0.263151814348577
0.278972056274377
0.295041106355214
0.311264566266251
0.327552799259206
0.343728695052386
0.359618186701607
0.375055498001538
0.389883143485701
0.40395192842647
0.417120948835071
0.429257591461584
0.440237533794941
0.449944744062926
0.458271481232175
0.465118295008178
0.470394025835277
0.474015804896666
0.475909054114394
0.476003511048564
0.474197771947101
0.47053785503222
0.465118685272086
0.458038781141214
0.449400254620476
0.439308811197095
0.42787374986465
0.41520796312307
0.401427936978639
0.386653750943996
0.371009078038129
0.354621184786383
0.337620931220456
0.320142770878397
0.302324750804611
0.284308511549854
0.266239287171238
0.248265905232225
0.230540786802634
0.213219946458634
0.196462992282749
0.180385221538136
0.16499007499853
0.15031595449638
0.136396316564771
0.123257675956753
0.110919605645344
0.0993947368235307
0.0886887589042645
0.0788004195204655
0.0697215245250202
0.0614369379907829
0.0539245822105741
0.0471554376971826
0.0410935431833635
0.0356959956218393
0.0309129501853
0.026687620266402
0.0229562774777696
0.0196662955620653
0.0168016515926503
0.0143221188950453
0.0121884121995753
0.0103636596334761
0.00881340272089443
0.0075055963828875
0.00641060893742373
0.00550122209938164
0.00475263098055129
0.00414244408963282
0.00365068333223761
0.00325978401088761
0.00295459482501559
0.00272237787096519
0.00255309942376736
0.002445359989659
0.00239321240068124
0.00238792782438779
0.00242140716330241
0.00248618105491943
0.00257540987170374
0.00268288372109071
0.00280302244548575
0.00293087562226513
0.00306212256377547
0.0031930723173339
0.00332066366522782
0.00344246512471513
0.00355667494802425
0.00366212112235409
0.00375826136987384
0.0038451831477232
0.00392360364801247
0.0039948697978221
0.00406095825920344
0.00412447542917771
0.00418865743973712
0.00425722905069625
0.0043291004570285
0.00440104502720939
0.00447125211385324
0.00453839255548871
0.00460161867655817
0.00466056428741829
0.00471534468433954
0.00476655664950643
0.00481527845101742
0.00486306984288515
0.00491197206503591
0.00496450784331015
0.00502368138946252
0.00509297840116141
0.00517636606198929
0.00527829304144245
0.00540368949493153
0.00555784725069008
0.00574665121970158
0.00598874481628109
0.00631132277596791
0.00674776134009097
0.00733761825576751
0.0081266327759042
0.00916672565919668
0.0105159991701294
0.0122387370789758
0.0144054046617983
0.0170926487004486
0.0203832974825669
0.0243663608015828
0.0291370299567146
0.0347966777529695
0.0414528585011443
0.049219308017824
0.0582127397828489
0.0684496446472688
0.0799114539693276
0.0925628782831336
0.10632234526023
0.121061999709596
0.136607703577645
0.152739035948226
0.169189293042623
0.185645488219556
0.201748351975178
0.21709233194308
0.231264804746189
0.243942318578063
0.254716696181571
0.263243130602901
0.269255805258163
0.272567893933397
0.273071560784566
0.270737960337562
0.265617237488203
0.257838527502231
0.247609956015319
0.235218637703466
0.220940521626688
0.205152405740908
0.188318917861458
0.170863655226812
0.153169184498587
0.135577041761537
0.118387732523559
0.101860731715691
0.086214483692111
0.0716264022301384
0.0582328705302327
0.0461292412159946
0.0353055569837299
0.0257289134031355
0.0174408260285029
0.010411782884513
0.00453978306149427
-0.000349663284576252
-0.00450353493207406
-0.00824129959372633
-0.011954913916613
-0.016108823482165
-0.0211643387410202
-0.0278732402969457
-0.0382128033780745
-0.0533839271583414
-0.0735554530927479
-0.0978641649173613
-0.124414788649316
-0.150302999108759
-0.171496756716119
-0.180612591341722
-0.170547372738601
-0.135581289041692
-0.0713778467678278
0.0250161291842579
0.155170495533932
0.318605505350866
0.503046489089674
0.689770085769277
0.859297257814239
0.991407710958056
1.06513989424316
1.06232196844864
0.986093811048977
0.84954811999903
0.669332043448256
0.465691237727953
0.262353431905491
0.0781050538788054
-0.0774574349141036
-0.197990536245773
-0.281022356001102
-0.327952604177347
-0.342789498411449
-0.331907025576361
-0.303666643738441
-0.26541808271133
-0.223468397599402
-0.183081968797765
-0.148479799764286
-0.121961665648424
-0.102608267456172
-0.0890348134370198
-0.0799423989480526
-0.0741180064539442
-0.0704345055269608
-0.0678506528469592
-0.0655670032386538
-0.0633637993614525
-0.0611011253797281
-0.0586593981733738
-0.0559406255299471
-0.0528684061446701
-0.0493879296204289
-0.0454659764677742
-0.0410907604148852
-0.0362446331662339
-0.0308747640050027
-0.0249315223925224
-0.0183722626133231
-0.0111613237751351
-0.00327002980888802
0.00532331053128859
0.0146334036680658
0.0246679712009146
0.0354277499061068
0.0469064917367136
0.0590909638226075
0.071960948470461
0.0854892431637467
0.0996416605627374
0.114415100904391
0.12976566831899
0.145566005033053
0.161688892539826
0.178007650080272
0.19439613464307
0.210728740964613
0.226880401529015
0.242726586568103
0.258143304061421
0.273007099736231
0.287195057067509
0.30058479727795
0.313054479337963
0.324482799965676
0.334748993626931
0.343732832535287
0.35131462665202
0.357375223686124
0.361796009094306
0.364476621382397
0.365409699388034
0.364610049900873
0.36210205482163
0.357920956554377
0.35211285800654
0.344734722588903
0.335854374215604
0.325550497304137
0.313912636775353
0.301041198053455
0.287047447066007
0.272053510243923
0.256192374521478
0.239607887336299
0.222454756629369
0.204898550845028
0.187115698930972
0.16929286595896
0.151542311682598
0.133952665219031
0.11664110132658
0.0997133917475132
0.0832639052080482
0.0673756074183479
0.0521200610725225
0.0375574258486296
0.023736458408674
0.0106945123986072
-0.00154246155167154
-0.0129599158283162
-0.0235547058335336
-0.0333350899855835
-0.0423207297187784
-0.0505409691016925
-0.0579985363492576
-0.0647242007940093
-0.0707642088369171
-0.0761634224588082
-0.0809653192203672
-0.0852119922621367
-0.088944150304517
-0.092201117647766
-0.0950208341719995
-0.0974398553371907
-0.099493352183171
-0.101215111329629
-0.102637534976112
-0.103791640902023
-0.104707062466625
-0.105412048609038
-0.105933463848239
-0.106296788283062
-0.106526117592203
-0.106643589322975
-0.106637021640645
-0.106506819110898
-0.106271578631935
-0.105948555360405
-0.105553662711397
-0.105101472358448
-0.104605214233537
-0.10407677652709
-0.103526705687975
-0.102964206423507
-0.102397141699443
-0.101832032739986
-0.101274059027783
-0.100727058303926
-0.100193526567951
-0.0996746180778388
-0.0991701453500145
-0.0986785791593477
-0.0981970485391526
-0.0977213407811879
-0.0972459014356567
-0.0967638343112067
-0.0962664313244709
-0.0957423337893373
-0.095196671553244
-0.094637792493631
-0.0940730618856151
-0.0935088624019897
-0.0929505941132248
-0.092402674487467
-0.0918685383905395
-0.0913506380859422
-0.0908504432348516
-0.0903684408961209
-0.0899041355262798
-0.0894560489795347
-0.0890217205077687
-0.0885977067605413
-0.0881795817850888
-0.0877619370263242
-0.087338381326837
-0.0869015409268935
-0.0864430594644361
-0.0859535979750847
-0.085422834892135
-0.0848394660465599
-0.0841912046670086
-0.0834647813798071
-0.0826459442089579
-0.0817194585761402
-0.0806691073007099
-0.0794776905996994
-0.0781243499324011
-0.076545504639139
-0.0746524495580222
-0.0723575923569736
-0.0695746680377077
-0.0662187389357313
-0.0622061947203437
-0.0574547523946359
-0.0518834562954915
-0.0454126780935861
-0.0379641167933874
-0.0294607987331557
-0.0198270775849431
-0.00898863435459374
0.00311569492687486
0.0164246994788657
0.0308045728700743
0.0460951152394217
0.0621097582338115
0.0786355650081292
0.0954332302252427
0.112237080056002
0.12875507217924
0.14466879578177
0.159633471558389
0.173277951711877
0.185204719952995
0.194990613857765
0.202355242257669
0.207168610337072
0.209311073403942
0.208728636761244
0.205432955706952
0.19950133553404
0.191076731530487
0.180367748979276
0.167648643158393
0.153259319340826
0.137605332794569
0.121081637649477
0.10401867739528
0.0867976010062019
0.0697557301762479
0.0531851796131402
0.0373328570383158
0.0224004631869272
0.00854449180784178
-0.00412377033635747
-0.0155382434693729
-0.0257974267507397
-0.0349990898587911
-0.0429699000243904
-0.049634118384506
-0.0550214720297609
-0.0592671540044324
-0.0626118233064524
-0.0654016048874074
-0.0680880896525385
-0.0712283344607413
-0.0754848621245656
-0.0816256614102163
-0.0905241870375524
-0.103092089200677
-0.120230264177119
-0.142082970682161
-0.167434458394194
-0.193700102376385
-0.21692640307667
-0.23179431570008
-0.232875262589324
-0.213266849265008
-0.166625738642876
-0.0890320956551647
0.0210104127493988
0.162574617605591
0.33253655170569
0.523062668031449
0.711332848796322
0.87491665394711
0.994917568360002
1.05597300184058
1.04625428912382
0.961354467080333
0.817458645251165
0.635250311055019
0.43436116951847
0.233385469736214
0.049865576697256
-0.103453245804823
-0.222145862337892
-0.304631539062808
-0.351863685719043
-0.367329855624681
-0.357051745676416
-0.328388362951237
-0.288946811208586
-0.245944045946852
-0.204804506378742
-0.169158188927684
-0.140840647227831
-0.119892992124053
-0.105047641726563
-0.0949837081063246
-0.0883014570552138
-0.0838252693328753
-0.0806071667693579
-0.0779268122651149
-0.0752915097910037
-0.0724362043882866
-0.0693234821686297
-0.0660688163945397
-0.0625191986325727
-0.058606447394405
-0.0542910968523606
-0.0495349035463147
-0.0443008463836937
-0.0385531266394754
-0.0322571679561888
-0.0253796163439144
-0.0178883401802837
-0.00975243021047945
-0.000948740823126126
0.00853373203985386
0.0187200354375719
0.0296260827430425
0.0412571450328459
0.0536078510871297
0.0666621873896076
0.0803934981275599
0.0947644851918335
0.109727208176842
0.125223084380565
0.14118288880455
0.157526754153909
0.174164170837323
0.190993986967037
0.207904408358865
0.224802325096063
0.241575793514102
0.25806024982766
0.274098861407244
0.289542915036328
0.304251816911349
0.318093092641706
0.330942387249766
0.342683465170857
0.353208210253271
0.362416625758266
0.370216834360061
0.376525078145843
0.381265718615759
0.384371236682922
0.385781648075398
0.385420396031138
0.383304403260323
0.379499668837112
0.374077861908163
0.367116321692635
0.358698057482187
0.348911748640976
0.33785174460566
0.325618064885399
0.312316399061849
0.298058106789168
0.282960217794013
0.267145431875542
0.250742118905411
0.233884318827779
0.216711741659301
0.199369767489135
0.182009446478937
0.164787498862863
0.14786631494757
0.131377751246528
0.115354580661246
0.0998670785003725
0.0849802479100119
0.0707502552678381
0.057224430183094
0.0444412654965919
0.0324304172807132
0.0212127048394078
0.0108001107081958
0.00119578065416559
-0.00760597632402477
-0.0156196879961483
-0.022868718900409
-0.0293852703434414
-0.035210380400311
-0.0403939239145143
-0.0449752312697047
-0.0489736095090197
-0.0524337511489101
-0.0553990070116013
-0.0579107670488617
-0.060008460342004
-0.0617295551018838
-0.0631095586689003
-0.0641820175129963
-0.0649785172336583
-0.0655286825599157
-0.0658601773503419
-0.0659987045930537
-0.0659680064057113
-0.0657898640355182
-0.065484097859222
-0.0650685673831132
-0.0645591712430259
-0.0639641305741015
-0.0632776126610368
-0.0625112557810593
-0.0616773650619701
-0.0607873639333577
-0.0598517941265974
-0.0588803156748514
-0.0578817069130692
-0.0568638644779869
-0.0558338033081276
-0.0547976566438018
-0.0537606760271064
-0.0527272313019257
-0.0517008106139309
-0.0506840204105798
-0.0496785854411177
-0.0486853487565767
-0.0477042717097756
-0.0467344339553205
-0.0457740334496043
-0.044820386450807
-0.0438699275188957
-0.042918209515624
-0.0419599036045329
-0.0409942033363862
-0.0400267154340557
-0.0390594287128245
-0.0380939706056662
-0.0371316204547742
-0.0361733095115606
-0.0352196209366568
-0.0342707897999134
-0.0333267030804001
-0.0323868996664057
-0.0314505703554383
-0.030516557854225
-0.0295833567787121
-0.028649113654065
-0.0277116269146684
-0.0267683469041259
-0.0258163758752606
-0.0248524679901144
-0.0238730293199486
-0.0228741178452433
-0.0218514434556984
-0.0208028265796548
-0.0197695640252374
-0.0187294870426981
-0.0176304217863446
-0.0164189162054256
-0.0150402400441305
-0.013438384841589
-0.011556063931872
-0.00933471244399042
-0.00671448730189644
-0.00363426722448257
-3.16527255819765e-05
0.00415703388603139
0.00899674850664295
0.0145537252375975
0.020895476385299
0.028090792461211
0.0362097421818564
0.0453236724688169
0.0555052084487344
0.0668282534533096
0.0793679890193021
0.0932752592657834
0.108791501448142
0.125517251157839
0.143005184162385
0.160836746020154
0.17862215208038
0.196000387483163
0.212639207159459
0.228235135831092
0.242513468010742
0.255228268001957
0.266162369899142
0.275127377587567
0.281963664743361
0.286540374833518
0.288755421115893
0.288535486639201
0.285836024243022
0.280641256557795
0.272964176004823
0.262846589776541
0.250481119974229
0.236342315476349
0.220895821783948
0.204568520431718
0.187748528987996
0.170785201054761
0.153989126267637
0.137632130295891
0.121947274842436
0.107128857643826
0.0933324124702616
0.0806747091255867
0.0692337534472885
0.0590487873064989
0.0501202886079931
0.0424099712901909
0.0358407853251561
0.0302969167185957
0.0256508823038785
0.0218200881773556
0.0186345155969392
0.0158041598726876
0.0129190874735865
0.00946143658626797
0.0047661624555545
-0.00237490632766935
-0.0129817975464868
-0.027730039857151
-0.0469506627890847
-0.0706273882565122
-0.096951085417203
-0.122080456392685
-0.141594825371432
-0.15054604710791
-0.143458506922585
-0.114329120701914
-0.0580123079027347
0.0295574244055102
0.150928089606131
0.303788965777468
0.480935852897489
0.670271072843803
0.85551077565134
1.01470783588312
1.12393992119536
1.1676867494766
1.13928861751794
1.04093606602087
0.884456940200671
0.693332137894477
0.490359544861489
0.294365746642973
0.120206028562256
-0.0212982552431472
-0.125549196722996
-0.193295868169205
-0.227153734885752
-0.231431195977736
-0.212129584351375
-0.176943166714009
-0.134908900368459
-0.0925072297607731
-0.0539803203613335
-0.0220793953474123
0.00206267839323843
0.0189313902623864
0.0304289741077665
0.0380768958752118
0.0431506637633025
0.0467176931060544
0.0495716795344512
0.0522325989764431
0.0549467076569476
0.0577845468488136
0.0608791228312813
0.0642830484900119
0.0680434372347239
0.0722048980319442
0.0768095354050085
0.0818969494340612
0.0875042357560553
0.0936645396088492
0.100383792773581
0.107704399970406
0.115676954468688
0.12434161379906
0.133728099753429
0.143855698384976
0.154733260008154
0.166359199198687
0.178721494793574
0.191797689891086
0.205554891850766
0.219949772293431
0.23492856710117
0.250427076417345
0.26637066464659
0.282674260454813
0.299242356769194
0.315969010778185
0.332752559664596
0.34951692366917
0.366091057989233
0.382301366000929
0.397984013859469
0.412984930499123
0.427159807633229
0.440374099754187
0.452503024133461
0.463431560821578
0.473054452648131
0.481276205221775
0.488011086930229
0.493183128940276
0.496726125197763
0.498583632427601
0.498708970133764
0.497043145228588
0.493456548452817
0.488049243686629
0.480959660428282
0.472324347192426
0.462277971510102
0.450953319928744
0.438481298012176
0.424990930340617
0.410609360510674
0.395461851135349
0.379671783844034
0.363360659282514
0.346648097112966
0.329651836013957
0.312487733680448
0.29526976682379
0.278110031171729
0.261118741468399
0.244404231474328
0.228072953966436
0.212229480738034
0.196976502598826
0.182414829374907
0.168643389908762
0.155744748866622
0.143680173705866
0.132431887906858
0.121992851372823
0.11235236449359
0.103496068145595
0.0954059436918758
0.0880603129820779
0.0814338383524506
0.0754975226258486
0.0702187091117314
0.0655610816061636
0.061484664391815
0.0579458222379601
0.0548972604004784
0.0522880246218552
0.0500660422453196
0.048203585203977
0.0466681277782333
0.0454249673156672
0.0444416821553822
0.0436881316280051
0.0431364560556863
0.0427610767521007
0.0425386960224466
0.0424482971634462
0.0424711444633458
0.0425907832019152
0.0427930396504483
0.0430813161931869
0.0434971920170268
0.0440124966242894
0.0445958761513843
0.0452207200289297
0.045865160981752
0.0465120750288863
0.0471490814835761
0.0477685429532734
0.0483675653396384
0.04894799783854
0.0495164329400556
0.0500842064284709
0.0506584836293769
0.0512289441808519
0.0517950848244609
0.0523568987709948
0.0529143826278393
0.0534675363989752
0.0540163634849786
0.0545608706830202
0.0551010681868663
0.0556369695868781
0.0561685918700117
0.0566959554198185
0.0572190840164447
0.0577380048366319
0.0582527484537166
0.0587633488376304
0.0592698433548999
0.0597729486636539
0.0602784985513916
0.0607838813330989
0.0612853165254878
0.0617804204221904
0.0622682060937583
0.0627490833876634
0.0632248589282975
0.0636987361169722
0.0641753151319193
0.0646605929282905
0.0651619632381571
0.0656882165705108
0.0662495402112631
0.0668575182232454
0.0675251314462091
0.0682667574968256
0.0690992499748512
0.0700544380883635
0.0711774902673439
0.0725197182749142
0.0741384499526481
0.0760970292205732
0.0784648160771689
0.0813171865993681
0.0847355329425561
0.0888072633405714
0.0936258021057048
0.0992905896287004
0.105907082378755
0.113582972983863
0.12236402796809
0.132306323421057
0.143445659657294
0.155773963550335
0.169239288532711
0.183745814595955
0.1991538482906
0.215279822726179
0.231896297571223
0.248731959053267
0.265471619958843
0.281756219633485
0.297182823981725
0.311402427855108
0.324086725980347
0.334846649832729
0.343365907510432
0.34940141541751
0.352783298263891
0.353414889065376
0.351272729143643
0.346406568126243
0.338939363946602
0.329067282844019
0.317059699363669
0.303240083007458
0.287879066476945
0.271406908177235
0.254251445924367
0.236798334456637
0.219391045434596
0.20233086744105
0.18587690598106
0.170246083481943
0.155613139293272
0.142110629686874
0.129828927856831
0.118816223919483
0.109077865178769
0.100558691569077
0.0932206537178302
0.0870008458510252
0.0817817322456651
0.0773911472297578
0.0736022951823164
0.0701337505333587
0.0667027073412209
0.0630721983008264
0.0577627000411165
0.0494499494812282
0.0372758100537903
0.0208482717049233
0.00024145089424038
-0.0240044094051543
-0.0508159589181813
-0.0765377677221249
-0.0951289465050131
-0.100725431128558
-0.0877650340818391
-0.0509874444813043
0.0145657719292311
0.113117446043417
0.245128949862904
0.407070920656301
0.589971323600816
0.779212604629866
0.954531690433078
1.09193287536587
1.17144268066827
1.18071329856051
1.1171103580751
0.987749826558924
0.80949800967328
0.607968650005757
0.405185023421515
0.218176989521146
0.0594566240372708
-0.0635594549469745
-0.148550086997942
-0.196922213724006
-0.212673367901412
-0.203421127973538
-0.176452496769653
-0.13861120362444
-0.0962977043779915
-0.055469181375812
-0.0212989159435371
0.00503779716771985
0.0243918856554365
0.037779547444649
0.0464113146905878
0.051692053778679
0.0551788709128312
0.0577986148024459
0.0599587255473336
0.061995599779002
0.0641524142691164
0.0665791259294997
0.0693324718121322
0.0724094584426402
0.0758728898754858
0.0797665298081036
0.0841300311306036
0.0890017959224353
0.0944189754523883
0.100417470178592
0.107031929748515
0.114295752998966
0.122230173620506
0.130855582611587
0.140200584104576
0.150282661564175
0.161108104845695
0.172672010195049
0.184958280248759
0.197939624033956
0.211577556968373
0.225822400860355
0.240613283908849
0.255878140703411
0.271533712224205
0.287485545841998
0.303629818330002
0.319900404084977
0.336157594823368
0.352230149778928
0.36795454136109
0.383174955154978
0.397743289921399
0.411519157596849
0.424369883293506
0.436170505299237
0.446803775077594
0.456160157267815
0.464137829684824
0.470642683319231
0.475588322337331
0.478896064081107
0.480494939068226
0.480311146567699
0.478262548639238
0.474413228229694
0.468852181155282
0.461672139931933
0.452969573775301
0.442844688600756
0.431401427023386
0.418747468358001
0.404994228619127
0.390256860521011
0.374654253477616
0.358309033602625
0.341347563709442
0.323899943311187
0.306100008620699
0.288085332550538
0.269997224712979
0.25198073142002
0.234184635683375
0.216761457214477
0.199867452424479
0.183618818822774
0.168021114586779
0.15311504878434
0.138936973081286
0.125516369178968
0.112875848814258
0.101031153759548
0.0899911558227536
0.0797578568473121
0.0703263887121817
0.0616850133318424
0.0538151226562963
0.0466912386710667
0.0402810133971986
0.0345452288912592
0.0294377972453365
0.0249057605870411
0.0208892910795047
0.0173297676832018
0.0142106962249742
0.0114958875767113
0.00914595473859864
0.00712380017794001
0.00539461582915657
0.00392588309378805
0.00268737284049142
0.00165114540504208
0.00079155059033309
8.52276663755869e-05
-0.000488894629701642
-0.000949598093651638
-0.00131337505410961
-0.00159442837259299
-0.00180467144350099
-0.00195095941481999
-0.00203308361535059
-0.00205986131480668
-0.00204023761474126
-0.00198249790211824
-0.0018942678493134
-0.00178251341411367
-0.00165354083971753
-0.00151299665473492
-0.00136586767318697
-0.00121648099450655
-0.0010685040035377
-0.000924944370536085
-0.000788150051168612
-0.000659809286513657
-0.000540950603061141
-0.000431942812712249
-0.000332495012779599
-0.000241656585987515
-0.000157817200471255
-7.87068097779509e-05
-1.39565286572108e-06
7.770574589544e-05
0.000162048658442659
0.000248485358406769
0.000334414608118061
0.000418309582812304
0.000499046267272207
0.000575903455827198
0.000648562752354309
0.00071710857027707
0.000782028132566281
0.000844211471739742
0.000904951429862411
0.000965943658545854
0.00102928661894913
0.00109748158177819
0.00117343262728581
0.00126044664527203
0.00136223333508384
0.00148290520561517
0.00162697757530722
0.00179887623256114
0.00200919881301298
0.00227909431855539
0.00263568594710956
0.00311195703848338
0.00374675107437178
0.00458477167835608
0.00567658261590459
0.00707860779437225
0.00885313126300075
0.0110682972129187
0.0137981099771413
0.0171224340305706
0.0211269939899952
0.0259033746140908
0.0315490208034194
0.0381672376004302
0.0458671901894589
0.0547634191164701
0.0648875736411461
0.0762140642302391
0.0887133622501413
0.102312504312203
0.11689509227273
0.132301293232987
0.148327839539195
0.164728028782534
0.181211723799139
0.197445352670102
0.213051908721476
0.22761634504817
0.240819296783212
0.252289432618818
0.261667607481721
0.268669397571979
0.273085100362971
0.2747797346014
0.273693040307292
0.269839478773996
0.263308232568186
0.254263205529855
0.242943022772323
0.22964779937766
0.214643758934146
0.198356921107678
0.181219431327284
0.163624424488527
0.145926024953501
0.128439346550839
0.111440492575704
0.0951665557897957
0.0798156184213478
0.0655467521651278
0.0524800181824381
0.0406945257419353
0.0301375008105227
0.0208207800861183
0.0127708272361491
0.00594589593325662
0.000236029855296471
-0.00453693731466126
-0.00861938188833228
-0.0123258901722178
-0.0160392584676048
-0.0202104930705657
-0.0252819907689089
-0.0319889346563588
-0.0422435125558986
-0.0572181648695674
-0.0771117142184127
-0.10114936544249
-0.127582705600864
-0.153693798842995
-0.175851441927705
-0.187214414712628
-0.180786525512021
-0.150856772540773
-0.0929993439144017
-0.00407361764905462
0.117775838338491
0.273060335510036
0.453346251353136
0.641303333906493
0.818525737421155
0.965777857169112
1.0629943294433
1.0899880679178
1.04161730081581
0.928487597123208
0.765014242630858
0.569157283216254
0.362421524843493
0.167261568221782
-0.00429266398961486
-0.144295848093604
-0.248350126641604
-0.315768703708123
-0.349330122060435
-0.353310211139089
-0.335352681513821
-0.302992912457576
-0.262875005632082
-0.220751785087851
-0.181484797264177
-0.148956773514237
-0.124245530844088
-0.106171558592333
-0.0935015248746006
-0.0850427268819785
-0.0796430908810145
-0.0761911722137151
-0.0736234408373611
-0.0713143054277511
-0.0690953613643452
-0.0668166561870016
-0.0643538893844131
-0.0616084123941061
-0.0585072286024418
-0.0550029933446156
-0.0510740139046564
-0.0467179096278046
-0.0418958318069468
-0.0365568813736563
-0.0306571130241379
-0.0241583558072959
-0.017028213124734
-0.00924006273075589
-0.000773056732364275
0.00838787841073807
0.0182520418861492
0.0288229585287673
0.0400983788207911
0.05207027889172
0.0647248605183536
0.0780425511247919
0.0920483297559002
0.106751592408543
0.122031784499608
0.137766980955033
0.153836207355648
0.170119439937174
0.186497605590228
0.202852581860317
0.219067196947842
0.235025229708096
0.250611409651266
0.26571141694243
0.28021188240156
0.29400038750352
0.306965464378068
0.318996595809853
0.329984215238418
0.339819706758199
0.348395405118522
0.35560459572361
0.361341514632576
0.365501348559426
0.367980234873059
0.368681586221084
0.367599402943188
0.364790492863225
0.360317695227077
0.354249728892601
0.346661192329624
0.337632563619948
0.327250200457348
0.315606340147571
0.302799099608338
0.288932475369342
0.274116343572252
0.258466459970708
0.242104459930322
0.225157858428681
0.207760050055345
0.190050309011846
0.172173789111691
0.154281523780357
0.136530426055298
0.119083288585938
0.10206862274438
0.0855151341982571
0.0694935147471456
0.0540688810002135
0.0392975289899595
0.0252269341722136
0.0118957514261363
-0.000666184945780024
-0.0124378612177128
-0.0234070842405078
-0.0335704814416801
-0.0429335008254135
-0.0515104109725611
-0.0593243010406446
-0.0664070807638547
-0.0727994804530513
-0.0785510444654655
-0.0836916470083991
-0.0882462266332941
-0.0922597211901636
-0.0957751439931432
-0.0988335838204903
-0.101474204914585
-0.103734246981929
-0.105649025193147
-0.107251930182986
-0.108574428050313
-0.10964606035812
-0.110494444133519
-0.111145271867747
-0.11162231151616
-0.111947406498239
-0.112140475697584
-0.112219513461921
-0.112200589603095
-0.112097849397075
-0.111916558907494
-0.111657161869395
-0.111329935243045
-0.110944605399232
-0.110510239170156
-0.110035243849433
-0.109527367192091
-0.108993697414575
-0.108440663194741
-0.107874033671861
-0.107298918446619
-0.106719767581116
-0.106140371598865
-0.105563861484793
-0.104992708685241
-0.104428725107965
-0.103873063122134
-0.103326215558333
-0.102788015708557
-0.10225763732622
-0.101733594626146
-0.101213742284575
-0.10069527543916
-0.10017472968897
-0.099647981094485
-0.0991112860385865
-0.0985672017168837
-0.098019275854739
-0.0974703334652127
-0.096922611893288
-0.096377760815872
-0.0958368422417947
-0.0953003305118095
-0.0947681122985933
-0.0942394866067464
-0.0937131647727921
-0.0931872704651773
-0.0926593396842723
-0.0921263207623706
-0.0915845743636891
-0.0910298734843679
-0.0904574034524709
-0.0898617619279847
-0.0892369589028197
-0.0885764167008095
-0.0878729699777111
-0.0871188657212048
-0.0863706488156071
-0.0856439237305419
-0.0848471957455016
-0.083892257347005
-0.0826943984810161
-0.0811724065529452
-0.0792485664276485
-0.076848660429428
-0.0739019683420316
-0.0703412674086529
-0.0661028323319316
-0.0611264352739534
-0.0553553458562497
-0.0487363311597976
-0.0412196557250205
-0.0327590815517876
-0.0233118680994136
-0.0128387722866596
-0.00130404849173221
0.0113245514477159
0.025075778234586
0.0399681236175408
0.0558152623893828
0.0723231524026371
0.0892139909865375
0.106200366669545
0.122985259179347
0.13926203944286
0.154714469586225
0.169016702934813
0.18183328401322
0.19281914854527
0.201622872219628
0.208004815456853
0.2118290253173
0.213005733121114
0.211506959100034
0.207366512397392
0.200679991068114
0.191604782078719
0.180360061307318
0.167226793543618
0.152547732488919
0.136723262456768
0.12008513985105
0.102987787632727
0.0857899183967055
0.0688080808888502
0.0523166600059825
0.0365478767958813
0.0216917884572829
0.00789628833988082
-0.00473289405567368
-0.016132193077772
-0.0263692768881795
-0.0354923839068237
-0.0433896089372288
-0.0500303903651664
-0.0554683919654318
-0.0598415029018431
-0.063371837727242
-0.0663657363834931
-0.0692137642014847
-0.0723907119011279
-0.0764555955913575
-0.0820516567701312
-0.0898701970223535
-0.101027206049248
-0.116806797344838
-0.137415183605771
-0.16190939404195
-0.188197274376535
-0.213037486928345
-0.232276159207633
-0.239808241975038
-0.229356541068708
-0.195645789000158
-0.134402644954277
-0.0423556947893181
0.0828675263151084
0.239935854710637
0.418846409764858
0.606243356158731
0.7861292672391
0.939865125018699
1.04617032017614
1.08399293495992
1.04965269686338
0.949935750982759
0.796582525145888
0.606312999504018
0.400826706531822
0.203205053128765
0.026371141593347
-0.120976489185487
-0.233537646463247
-0.309440070600536
-0.350239435063054
-0.3608394103109
-0.34688450479366
-0.316188642292322
-0.276476425707107
-0.234006340084193
-0.193570752615713
-0.158495912639751
-0.130646636889599
-0.110324780528925
-0.0960735602482787
-0.0863121293093062
-0.0796961633141658
-0.0751178602055283
-0.0717059402665765
-0.0688256461210058
-0.0660787427330242
-0.063295151622886
-0.0603355962532506
-0.0571140800474085
-0.053584004602876
-0.0497009713822576
-0.0454227817132454
-0.0407094367886195
-0.0355231376662482
-0.0298282852690874
-0.0235914803851811
-0.016781523667661
-0.00936941563474719
-0.00132835666974718
0.00736625297894328
0.0167368131978408
0.0268035240083737
0.0375839166970818
0.04908047675719
0.0612844714748895
0.07417981913726
0.0877411409127861
0.101933760851357
0.116713705884267
0.132027705824213
0.147813193365299
0.163998304083033
0.180501876434327
0.197233451757498
0.214093274272267
0.23097229107976
0.247752152162508
0.264305210384447
0.280494521490917
0.296173844108661
0.31118763974583
0.325401474309676
0.338739234609807
0.351050342278445
0.362194576852847
0.37204856397063
0.380505775369769
0.387476528888598
0.392887988465811
0.396684164140459
0.398825912051955
0.399290934440067
0.398073779644925
0.395185842107018
0.390655362367191
0.384527427066651
0.376863968946963
0.367743766850049
0.357262445718194
0.345532028408913
0.332625151307147
0.318660115263574
0.303798443478629
0.288195175669574
0.271998868070497
0.255351593432316
0.238388941022775
0.221240016626444
0.204027442544723
0.186867357595837
0.16986941711484
0.153136792953612
0.136766173480861
0.120847763582122
0.105465284659758
0.0906959746329588
0.0766105879377414
0.063273804063315
0.0507163192866246
0.0389412682192952
0.027948035464321
0.0177325544893273
0.00828730762657071
-0.000398673927060667
-0.00833981011004731
-0.0155539719962382
-0.0220624817948512
-0.0278901128504727
-0.0330650896430576
-0.0376190877879294
-0.0415872340357802
-0.045008106272671
-0.047923733520031
-0.0503795959346583
-0.0524246248087193
-0.0541112025697494
-0.0554934409760428
-0.0566026005030191
-0.0574529007001314
-0.0580587430059648
-0.0584350166716385
-0.0585970987608068
-0.0585608541496588
-0.0583426355269182
-0.0579592833938434
-0.057428126064228
-0.0567669796643998
-0.0559941481332216
-0.0551284232220912
-0.0541890844949407
-0.0531958993282374
-0.0521691229109831
-0.0511294982447143
-0.0500982561435026
-0.0490970798093132
-0.0481173880143934
-0.0471395459566817
-0.0461635622515142
-0.0451894450835648
-0.0442172022068449
-0.0432468409447038
-0.0422783681898286
-0.0413117904042439
-0.0403471136193125
-0.0393843434357344
-0.0384234850235478
-0.0374645431221285
-0.0365075220401898
-0.0355524256557832
-0.0345992574162977
-0.0336480203384599
-0.0326987170083344
-0.0317513495813235
-0.0308059197821671
-0.0298624289049432
-0.0289208778130672
-0.027978714185111
-0.0270332219427628
-0.0260875758705097
-0.0251443388361877
-0.0242053260545028
-0.0232716050870308
-0.0223434958422177
-0.0214205705753794
-0.0205016538887019
-0.0195848227312412
-0.0186674063989232
-0.0177459865345437
-0.0168163971277689
-0.0158737245151346
-0.0149123073800469
-0.0139257367527817
-0.0129068560104851
-0.0118477608771728
-0.010739799423731
-0.00958678390231371
-0.00839661782943579
-0.00711444831223496
-0.00568065564200615
-0.00403444981243528
-0.00211387051959872
0.000144212838036228
0.00280410115961172
0.0059312656418789
0.00959234777919826
0.0138551593635396
0.0187886824844821
0.024463069529214
0.030949643182533
0.0383208964268455
0.0466504925421681
0.056013265106126
0.0664852179939536
0.0781435253784951
0.0910960183058818
0.10542508351404
0.120876660137769
0.137166032735013
0.154011565209967
0.171134700813068
0.188259962140999
0.205114951136693
0.221430349089325
0.236939916634318
0.25138049375334
0.264491999774306
0.276017433371378
0.285702872564961
0.293297474721709
0.298553476554521
0.301226194122542
0.301074022831162
0.297958915419901
0.292123577004526
0.283868564665551
0.273493218378857
0.261296698526223
0.24757798589532
0.232635881679714
0.216769007478867
0.200275805298132
0.18345453754876
0.166603287047894
0.150019957018573
0.134002271089729
0.118847773296189
0.104794425610486
0.0918637318760882
0.0801289634415132
0.0696383653976906
0.0604048656482317
0.0524060749094289
0.0455842867102561
0.0398464773923687
0.0350643061101036
0.0310741148304791
0.0276769283331946
0.0246384542106315
0.021689082867852
0.0185559790057487
0.0143782302666224
0.00791870500367536
-0.00176831238776748
-0.0153264217089553
-0.0330971069577116
-0.0551197363284335
-0.0808694570187069
-0.107178946112963
-0.129509670384599
-0.143030891195187
-0.142622338031086
-0.122874208503444
-0.0780874360288186
-0.0040360003260454
0.102409022977403
0.241611542102612
0.408900148452858
0.594568116613607
0.783873404352516
0.958522664521855
1.09538315589303
1.17371285333827
1.1817380086712
1.11668271723828
0.985094077162574
0.807016636139602
0.606834077687335
0.405483099022028
0.220318190942787
0.064930623985289
-0.0540161496776473
-0.135647061079406
-0.181421941612755
-0.195011066591098
-0.182295155248473
-0.151365370739553
-0.111099187466545
-0.0683019811542335
-0.0284082815330944
0.00511227048328028
0.0307574980418717
0.048992688350234
0.0614557847837952
0.0696049339387784
0.0749120179703504
0.0785444469504816
0.0813651072930181
0.0839323617536809
0.086500064758832
0.0891860019352997
0.0921242052763455
0.0953694660553432
0.0989729605385239
0.102982249984976
0.107441280646643
0.112390383768328
0.117866275587688
0.123890907747945
0.130475206440161
0.137677269131265
0.145548129799332
0.154127966051198
0.163446099122462
0.173520993877482
0.184360258809381
0.195960646040041
0.208308051320107
0.221377514028986
0.235133217174845
0.249528487394614
0.264505794953985
0.27999675374741
0.295922121298104
0.312191798758044
0.328704830907968
0.345349406157374
0.36201552571461
0.378630830678976
0.395019238829429
0.410997569209993
0.426394027555352
0.441048206290844
0.454811084532469
0.467545028086879
0.47912378945139
0.489432507813971
0.498367709053251
0.505837305738515
0.511760597129707
0.516068269177428
0.518702394522937
0.51961643249815
0.518775229125641
0.51615074035122
0.511604367089273
0.505197027314862
0.497091458026997
0.487446415022745
0.476416672897234
0.464153025043652
0.450802283653247
0.436507279715327
0.421406863017261
0.405635902144475
0.389325284480458
0.372601916206758
0.355588722302981
0.338404646546797
0.321164651513932
0.303979718578175
0.286956847911372
0.270199058483431
0.25380538806232
0.237870893214065
0.222486649302755
0.207739750490537
0.193713309737617
0.180486458802264
0.168134348240803
0.156675959352669
0.146058899584568
0.136264194373852
0.127270647897388
0.119054622404312
0.111590038216027
0.104848373726204
0.0987986654007794
0.09340750777796
0.0886390534682182
0.0844550131542943
0.0808146555911962
0.0776748076061993
0.0749898540988458
0.0727117380409464
0.0707899604765788
0.0691846132345157
0.0678713917223283
0.0668174480108105
0.065992211953245
0.0653674787596461
0.0649174089967605
0.0646185285880664
0.0644497288137744
0.0643922663108265
0.064429763072897
0.0645556434586406
0.0648386949041688
0.0652540090817373
0.0657524457703346
0.0662940362722467
0.0668479834130585
0.0673926615416529
0.0679156165302111
0.0684135657742126
0.0688923981924356
0.069367174226956
0.0698510148509885
0.0703316498891031
0.0708082252571384
0.0712807447209595
0.0717492123830754
0.0722136326826387
0.0726740103954462
0.0731303506339382
0.0735826588471989
0.0740309408209564
0.0744752026775825
0.074915450876093
0.0753516922121473
0.0757839697802706
0.0762128570555523
0.0766381192657187
0.0770593234999825
0.0774762023280109
0.0778886537999261
0.0782967414463051
0.0787006942781797
0.0791009067870361
0.079497938944816
0.0798925162039152
0.0802855294971846
0.0806780352379298
0.0810712553199114
0.0814665771173446
0.0818660361265541
0.082286788827552
0.082729443115704
0.0831894244640327
0.083668901394043
0.0841767854757206
0.0847287313275338
0.0853471366164323
0.0860611420578475
0.0869066314156925
0.0879262315023626
0.0891693121787342
0.0906919863541659
0.092557109986498
0.0948342820820522
0.0975992570165555
0.100891043439029
0.10483110051441
0.109574119617148
0.115248559845468
0.121956648021361
0.129774378690593
0.138751514122696
0.148911584310975
0.160251886972506
0.172743487548134
0.186331219202475
0.200933682823916
0.216450740235324
0.232982014700883
0.250175008431258
0.267486765249906
0.284422864908527
0.300537423087058
0.315433091393676
0.3287610573648
0.340221044465088
0.349561312087438
0.35657865555299
0.361118406111121
0.36307443093945
0.362389133143837
0.35905345175838
0.353106861745419
0.344637373995532
0.333781535327538
0.320720809799248
0.305853183150275
0.289675252757827
0.272640807118835
0.255160321669242
0.237600958784001
0.220286567777074
0.203497684901435
0.187471533349068
0.172402023250969
0.158439751677142
0.145692002636604
0.134222747077381
0.124052642886509
0.115159034890037
0.107475954853023
0.10089372495102
0.0952285213491875
0.0904386108050764
0.0864334123568581
0.0829482593631044
0.0795443995027864
0.075608994775275
0.0703551215003412
0.0628217703181553
0.0519384575082426
0.0367887656328268
0.0166610592388714
-0.00783049022681775
-0.0346155647203313
-0.0601676996006564
-0.0795737528003694
-0.0871658198530234
-0.0757836709468444
-0.0393106010406811
0.0267461904704496
0.125255599755363
0.257475046480379
0.421369475352406
0.605081129052474
0.792242966104538
0.963779899789581
1.09790879814562
1.17096660116556
1.17005895680982
1.09538527153785
0.955729464781841
0.768598680781339
0.56022328858326
0.359806625653381
0.180361058823129
0.0325004016880831
-0.0776975934581474
-0.149028046430399
-0.184109664776656
-0.188313934257841
-0.169854158474577
-0.136490973011361
-0.0954421930547764
-0.0533828133934952
-0.0163272611111684
0.0130072032726093
0.0349546285662478
0.0502993904333942
0.0601909034203855
0.0661436209562475
0.069957210736203
0.0726680901478896
0.0747897417624231
0.0767376047063797
0.0787980964707227
0.081128612910803
0.0837604294372797
0.0867281479217633
0.0900940511142248
0.0939005415954987
0.0981891240316504
0.103000405173976
0.108374093859005
0.114349001008494
0.120960786275923
0.128232191704005
0.136201818848279
0.144902313815061
0.154355377207266
0.164571764124403
0.175551284162583
0.187282801414513
0.199744234469499
0.212902556413444
0.226713794828851
0.24112303179482
0.256064403887048
0.271461102177831
0.287263224206455
0.303369625048368
0.319619021906768
0.335853843763797
0.351920234065202
0.367668050720337
0.382950866102167
0.397625967047262
0.411554354855799
0.424600745291565
0.436633568581953
0.447524969417963
0.457150806954205
0.465390654808894
0.472127801063854
0.477249248264517
0.48064571341992
0.482215872390289
0.481947643193373
0.47987618737802
0.476046509107983
0.470513454875894
0.463341713503262
0.454605816140474
0.444390136266796
0.432788889690373
0.419906134548225
0.405855771306252
0.390761542759233
0.374757034030824
0.357985672573557
0.340600728168846
0.32276531292698
0.304652381287128
0.286444730017335
0.268334998214526
0.250503317231984
0.233007578753432
0.215938595864569
0.199387919597768
0.183436045860267
0.168152415434162
0.153595413976415
0.13981237201885
0.126839564968151
0.114702213105867
0.103414481588409
0.0929794804470487
0.0833892645879222
0.0746248337920269
0.0666561327152232
0.0594420508882338
0.0529304227166436
0.0470707315107648
0.0418472878716585
0.0372130814024995
0.0331194749294227
0.0295200587366508
0.0263706505664947
0.0236292956193537
0.0212562665537148
0.0192140634861531
0.0174674139913323
0.0159832731020034
0.0147308233090063
0.0136814745612684
0.0128088642658055
0.0120888572877216
0.0114995459502082
0.0110212500345457
0.0106389918725003
0.0103677384526663
0.0101981010304933
0.0101119165805203
0.0100925544888372
0.0101249165530855
0.0101954369824583
0.0102920823977002
0.0104043518311069
0.0105232767265261
0.0106414209393565
0.0107528807365486
0.0108532847966042
0.0109397942095768
0.0110111024770709
0.0110674355122429
0.0111105516398005
0.0111437415960029
0.0111718285286607
0.0112011679971363
0.0112396172955745
0.0112915621601838
0.0113526045859598
0.0114179170718989
0.0114833159242854
0.0115452612566915
0.0116008569899768
0.0116478508522889
0.011684634379063
0.011710242913022
0.0117243556041768
0.0117272954098256
0.0117200290945547
0.011704167230238
0.0116819641960372
0.0116563181784017
0.0116307711710684
0.0116095089750624
0.0115973611986963
0.0115998012575702
0.0116229463745722
0.0116735575798783
0.0117590397109519
0.0118874414125442
0.0120674551366944
0.012308417142729
0.0126203074972627
0.0130209503506308
0.0135543304224043
0.0142683560621547
0.015217456865274
0.0164629395368889
0.0180729878918605
0.0201226628547849
0.0226939024599926
0.025875521851549
0.0297632132832539
0.0344595461186419
0.0400739668309822
0.0467227990032788
0.0544909322479575
0.0634253798892753
0.0735886392754931
0.0849955031931459
0.0976122108052896
0.111356447651501
0.126097345647877
0.141655483087037
0.157802884638119
0.174263021346783
0.19071081063521
0.2067726163021
0.222026248522677
0.236099801864983
0.248627012044179
0.259192675547306
0.267460743996
0.27317449075646
0.27615651093944
0.276308721400256
0.27361236073878
0.268127989299446
0.259995489171245
0.249434064187728
0.236656247492125
0.222004219883425
0.205964414245499
0.188984259362323
0.171471735763499
0.153795375724255
0.136284263265448
0.119228034153559
0.102876875900698
0.0874415277646022
0.0730932807486342
0.0599639776017845
0.0481460128186699
0.0376301670079132
0.0283438625103028
0.0203377606247281
0.0135860427196268
0.00797937315015795
0.00332489925820245
-0.000653748627636896
-0.00431645719203549
-0.00810663013294721
-0.0125511881616039
-0.0181816247840059
-0.0259247789756409
-0.0377209516382649
-0.0545770339525877
-0.0763699859275074
-0.10184683640011
-0.128624683035669
-0.153298729067043
-0.17068001926592
-0.17303836580911
-0.153680178255361
-0.107310311700779
-0.0300320667788301
0.0806528103396607
0.225940284126729
0.40064207378028
0.588111680585708
0.769490576571081
0.92465804967136
1.0322312037284
1.07013695998032
1.03080852991648
0.923831367872395
0.763467023733956
0.568346331466683
0.361469409115707
0.166231713735478
-0.00516186039867184
-0.144099073605416
-0.246086899104293
-0.310836174853915
-0.341108390222931
-0.342343000106722
-0.322384952521101
-0.288519366181063
-0.247431553606915
-0.205207021124271
-0.167322600910668
-0.13708017831437
-0.114124960309491
-0.0975466625056071
-0.0862888399625532
-0.0791488871904292
-0.0747780381495981
-0.0717258535309527
-0.0692320378971439
-0.0670263843315358
-0.0648653578035642
-0.0625594550723652
-0.0599732046867753
-0.0570251669853317
-0.0536879340962719
-0.0499730412560188
-0.0458289640054048
-0.0412047163003706
-0.0360576370900297
-0.0303489029223274
-0.0240435279440411
-0.0171103639007805
-0.00952210013698723
-0.00125526359593497
0.00770978118027044
0.0173888320506911
0.0277938492755572
0.0389330927704145
0.0508119070156638
0.0634086871880596
0.0766860687763041
0.0905979557537169
0.105089520578235
0.120097204192413
0.135548716023422
0.151363033983053
0.167450404467711
0.183712342358422
0.200041631020827
0.216322322305186
0.232429736546375
0.248230462563888
0.263582357661837
0.278334547628952
0.292327426738578
0.305392657748681
0.317392626384492
0.328248634165534
0.33782514072357
0.346002190321596
0.35267829367549
0.357770427954014
0.36121403677881
0.362963030224404
0.362989784818203
0.361285143540498
0.35785841582446
0.352737377556144
0.345968271074487
0.337615805171308
0.32776315509131
0.316511962532075
0.303982335644071
0.290312849030645
0.275651057681909
0.260085811847583
0.243772071673477
0.226876418369357
0.209556601391598
0.191961538443181
0.174231315473701
0.156497186679359
0.138881574502964
0.121498069633939
0.10445143100831
0.0878375858087166
0.0717436294644058
0.0562478256512333
0.0414196062916647
0.0273195715547744
0.0140049906939086
0.00150702951497417
-0.0101772287641901
-0.0210545216475878
-0.0311348648862876
-0.040431552478423
-0.0489611566691926
-0.0567435279508601
-0.0638017950627545
-0.0701623649912692
-0.075854922969863
-0.08091243247906
-0.0853711352464488
-0.0892705512466837
-0.0926534787014832
-0.0955659940796316
-0.0980574520969778
-0.100180485716436
-0.101989673919469
-0.103520585438619
-0.104791733790215
-0.105820994498378
-0.106626109249161
-0.107224685890545
-0.107634198432441
-0.107871987046689
-0.107955258067059
-0.107901083989251
-0.107726403470893
-0.107448021331543
-0.107082608552689
-0.106646702277749
-0.106156705812068
-0.105628888622923
-0.10507938633952
-0.104524200752994
-0.10397919981641
-0.103458528770353
-0.102946279444498
-0.102433953985703
-0.101921562861279
-0.101409113299063
-0.100896609287418
-0.100384051575238
-0.0998714376719391
-0.0993587618474687
-0.0988460151322992
-0.0983331853174312
-0.0978202569543917
-0.0973072113552352
-0.0967940265925434
-0.0962806774994252
-0.0957671356695165
-0.0952533694569805
-0.0947393439765075
-0.0942250211033148
-0.0937103594731473
-0.0931953144822766
-0.0926798382875018
-0.0921638798061489
-0.0916473847160712
-0.0911299913314453
-0.0906095272225701
-0.0900871965287793
-0.0895640994906117
-0.089040275903232
-0.088514705116431
-0.0879853060346248
-0.087448937116856
-0.0869013963767923
-0.0863374213827278
-0.0857506892575822
-0.0851338166789011
-0.0844783598788558
-0.083772800758061
-0.0829951963210885
-0.0821274192676907
-0.0811448800951981
-0.0800147850565611
-0.0786961361603497
-0.077139731170754
-0.0752881636075837
-0.0730758227462686
-0.070428893617858
-0.0672653570090214
-0.0634949894620476
-0.0590193632748459
-0.0537549574275766
-0.0476387423820779
-0.0405286197025965
-0.0323130723723584
-0.0229186636521118
-0.012310037080127
-0.000489916472196372
0.0125008940783653
0.0265835102007213
0.0416409672465126
0.0575182202898583
0.0740221441273549
0.0909215332780767
0.108018140385601
0.124961773775191
0.141285505608386
0.15656882113249
0.170437669571422
0.182564464125715
0.192668081972518
0.200513864265598
0.205913616135333
0.208725606688721
0.208854569009373
0.206251700157515
0.200907512926993
0.192847440238914
0.182412226606101
0.169997493581831
0.155981795916328
0.140726621556765
0.124576391647262
0.107858460528889
0.0908831157396625
0.0739435780145489
0.0573160012854615
0.0412594726812633
0.0260160125277642
0.0118105743477236
-0.00115799387833548
-0.0129138143366381
-0.0234236904836042
-0.0326287188654646
-0.0405261069487347
-0.0471691731202146
-0.0526673466869886
-0.0571861678764257
-0.0609472878361793
-0.0642284686341875
-0.0673635832586725
-0.0707426156181416
-0.0748116605413862
-0.0796299451031708
-0.0867804952458127
-0.0983049854639679
-0.115104825115863
-0.136940700063324
-0.162432572671775
-0.189059681810239
-0.213160542851337
-0.229932947671289
-0.235309859740203
-0.223175592896895
-0.183840517538148
-0.111427779376877
-0.00401407229690387
0.136370361647042
0.303741732229324
0.488162701053401
0.675742381551827
0.848425807229008
0.982016360689357
1.05536833076111
1.05736864210184
0.987095185141259
0.85381681608115
0.676003931455581
0.47501531088311
0.272445086252508
0.085314195887061
-0.0743700161889902
-0.19961380025045
-0.288000648316764
-0.340024833588133
-0.360612387874221
-0.355533065215797
-0.330953077628148
-0.293435095101075
-0.249938245598899
-0.20776751280225
-0.171686112344402
-0.14233993923581
-0.11970876469534
-0.10334415250929
-0.0923694590313927
-0.0854798331828139
-0.0809422309425685
-0.0773457991159266
-0.074373544513206
-0.0716816670410246
-0.0689999632277769
-0.0661318262236338
-0.0629542458005438
-0.0594178083522315
-0.0555400492982431
-0.0512830949680982
-0.0465905353925886
-0.0414213185530252
-0.0357371207514319
-0.0295023466105451
-0.0226841290738136
-0.0152523294053987
-0.00717953719017461
0.00155892966627247
0.0109850249376431
0.0211179740769258
0.0319720880781622
0.0435450924985044
0.0558313768853952
0.0688164287185301
0.082475397290839
0.0967730937084871
0.111663990890875
0.127092223570636
0.142991588293641
0.159285543418995
0.175887209119037
0.192699367379342
0.209614461998718
0.226514598589211
0.243271544576098
0.259746729197895
0.275791243506349
0.291270221425952
0.306091472504799
0.320088640413153
0.33310426075726
0.344996694365391
0.355640127287841
0.364924570796929
0.372755861386998
0.379055660774417
0.38376145589758
0.386826558916902
0.388220107214827
0.38792706339582
0.385948215286372
0.382300175934999
0.377015383612239
0.370142101810658
0.361709826831303
0.351763868098855
0.340458634192771
0.327947616837178
0.314380249019852
0.299901904992219
0.284653900269353
0.268773491629979
0.25239387711647
0.235644196034852
0.218649528954796
0.201530897709626
0.184405265396314
0.167385536375482
0.150580556271402
0.134095111971995
0.118029931628831
0.102481684657131
0.0875429817357651
0.0733023748072526
0.0598311826828515
0.0471443404587319
0.0352462468977594
0.0241378756153556
0.0138164868385814
0.00427562740613724
-0.00449486923163761
-0.0125088830127647
-0.0197840072636262
-0.0263415486989652
-0.0322065274218856
-0.0374076769238521
-0.0419774440846901
-0.0459519891725862
-0.0493711858440872
-0.0522786211441014
-0.0547215955058974
-0.0567511227511049
-0.058421930089714
-0.0597884265535054
-0.0608775948935932
-0.0617041697940427
-0.0622833198902482
-0.0626306837115119
-0.0627623696810432
-0.0626949561159583
-0.0624454912272813
-0.062031493119943
-0.0614709497927819
-0.0607823191385433
-0.0599845289438803
-0.0590969768893527
-0.058139530549428
-0.0571325273924807
-0.0560967747807927
-0.055053549970553
-0.054024600111858
-0.0530294601565936
-0.0520464923687193
-0.0510653107915467
-0.0500859241051877
-0.0491083404916102
-0.0481325676346385
-0.047158612719953
-0.04618648243509
-0.0452161829694421
-0.0442477200142578
-0.043281098762642
-0.0423163239095556
-0.0413533996518157
-0.0403923296880952
-0.0394331172189235
-0.0384757649466858
-0.0375202750756238
-0.036566649311835
-0.0356148888632731
-0.034664994439748
-0.0337169662529256
-0.0327707031379103
-0.0318212436640211
-0.0308688266977449
-0.0299169450656284
-0.028968233593973
-0.0280244691088349
-0.0270865704360251
-0.0261545984011098
-0.0252277558294098
-0.0243043875460008
-0.0233819803757136
-0.0224571631431335
-0.0215257066726008
-0.0205825237882108
-0.0196216693138136
-0.0186363400730143
-0.0176188748891725
-0.0165607545854031
-0.0154526019845755
-0.0142845928612376
-0.0130841586043466
-0.0118233771626283
-0.0104315281372597
-0.00883808038803907
-0.00697269203338535
-0.0047652104503384
-0.00214567227455931
0.000955696599670153
0.00460848101944722
0.0088820765732483
0.0138456895909286
0.0195683371437226
0.026118847044244
0.0335658578464853
0.0419778188458181
0.0514229900789932
0.0619694423241404
0.0736850571007682
0.0866380430940102
0.101031826026995
0.116728867351978
0.133355357576195
0.150553238834492
0.167980204889322
0.185309701130741
0.202230924576417
0.218448823871621
0.233684099289233
0.247673202729738
0.26016833772123
0.270937459419408
0.279764274607578
0.286448241696655
0.290804570725158
0.292664223359214
0.291873912892558
0.288296104246531
0.281834723356083
0.272727636664327
0.261414009822719
0.248311567317937
0.233812961340598
0.218285771785253
0.202072506250387
0.185490600038422
0.168832416155718
0.152365245312566
0.136331305923197
0.120947744105775
0.106406633682401
0.0928749761791116
0.0804947008258781
0.0693826645566084
0.0595710056227773
0.0509522158677963
0.0435485587672077
0.0373327894846833
0.032214993936129
0.028042588789685
0.0246003214657258
0.0216102701368598
0.0187318437279302
0.0155617819160136
0.0117202838792209
0.00672092262857876
-0.00134797205992243
-0.0138252969234339
-0.031166170913113
-0.0529419351941233
-0.0778401531456349
-0.103664610360824
-0.127323411962447
-0.143856054242808
-0.146755920343459
-0.130154140384258
-0.0889793431453479
-0.0189576560671511
0.0833752150486343
0.21900119384116
0.38319124436486
0.566529714304478
0.755140989420552
0.930689493549421
1.07038006006672
1.15181955087549
1.16435819800798
1.1058593582422
0.982502226839209
0.808781837543055
0.607509062580826
0.405009843848768
0.218463162868726
0.0605796070142766
-0.0610888810194705
-0.144170893688564
-0.190115121283338
-0.203529147485519
-0.191983507194929
-0.162843431576759
-0.123228374904048
-0.0800120145576842
-0.0398075933473836
-0.00682836828812733
0.0187141809450659
0.03730783346202
0.0498912261529152
0.0578538536882888
0.0630163400540351
0.0667357306267986
0.069613450107637
0.0721437359151818
0.0746792146675101
0.0774309021821444
0.0804682034760535
0.0838022791447184
0.0875079580496348
0.091627456947345
0.0962019847893574
0.101271886350376
0.106876642228304
0.113054868844238
0.119844305724528
0.127269775598607
0.13536364182324
0.144163926144916
0.153698072679627
0.163982947912862
0.175024840699614
0.186819462264374
0.199351946201135
0.212596848473389
0.226518147414132
0.241069243725856
0.256192960480557
0.27182154311973
0.287878666974138
0.304324033248543
0.321033425160784
0.337846980844907
0.35460887714313
0.371167329605848
0.387374592491625
0.403086958767197
0.418164760107476
0.432472366895543
0.445878188222655
0.45825467188824
0.469478304399897
0.479429610973401
0.487993155532698
0.495057540709904
0.500515407845313
0.504263436987388
0.506198203737261
0.506290222891836
0.504583052090581
0.50112946051358
0.495990566364741
0.489235836871806
0.480943088286342
0.471198485883747
0.460096543963248
0.447740125847899
0.434240443884584
0.419717059444017
0.404297882920739
0.38811917373312
0.371325540323361
0.35406994015749
0.336513679725364
0.318826414540668
0.301186149140919
0.28377923708746
0.266762442041696
0.250174843621492
0.234097175669096
0.218605430317613
0.203765667822454
0.189634016561334
0.176256673034271
0.163669901863587
0.151900035793911
0.140963475692171
0.130866690547604
0.121606217471748
0.113168661698445
0.105530696583841
0.0986590636063896
0.0925105723668433
0.0870321005882616
0.0821627534250855
0.0778797806771115
0.0741480758226981
0.0709203230024455
0.0681515109752802
0.0657989331184552
0.0638221874275498
0.0621831765164695
0.0608461076174462
0.0597774925810382
0.05894614787613
0.0583231945899327
0.0578820584279836
0.0575984697141461
0.0574504633906102
0.0574183790178925
0.0574848607748352
0.0576348574586077
0.0578632187506204
0.0581832563523433
0.0585803465905789
0.0590386463638685
0.0595438045976324
0.06008296224417
0.0606447522826594
0.0612192997191575
0.0617982215866001
0.0623746269448024
0.0629431168804578
0.0634997845071392
0.0640422149652979
0.0645694854222643
0.0650821650722478
0.0655823151363367
0.066073488862498
0.0665607315255779
0.0670505804273011
0.0675458585985358
0.0680406198966159
0.0685331177978667
0.0690219550730214
0.0695059886571892
0.0699843296498556
0.0704563433148821
0.0709216490805067
0.071380120539343
0.071831885448381
0.0722773257289872
0.0727170774669035
0.0731520309122487
0.0735833304795174
0.0740123747475802
0.0744408164596841
0.0748705625234522
0.0753037740108837
0.0757428661583539
0.0761905083666143
0.0766496242007926
0.0771233913903925
0.0776152418292941
0.0781337100307701
0.0786954684875557
0.0793147673252423
0.080012390103713
0.0808159131361086
0.0817597054888274
0.0828849289815257
0.0842395381871169
0.0858780589446012
0.087870166787461
0.0902975172140034
0.093246728815162
0.0968093306482066
0.101081762236744
0.106165373570716
0.112166425106404
0.11916876320231
0.127257669143734
0.136528085561734
0.147030225358591
0.158769342430661
0.17170573166838
0.185754728956262
0.200786711172898
0.216627096190961
0.233056342877198
0.249846352623723
0.26678880882525
0.283390164917574
0.299171823213337
0.313707486657737
0.326623158828531
0.337597143936036
0.346360046823126
0.352694772965235
0.356436528470355
0.357472820079035
0.355743455164386
0.351240541732074
0.343993293412312
0.333925797809764
0.321447170942537
0.307083912044626
0.291322170351615
0.274607745100678
0.257346085530573
0.239902290881645
0.222601110395831
0.20572694331665
0.189523838889211
0.17419549636021
0.159905264977932
0.146776143992247
0.134890782654613
0.124291480218077
0.11498018593727
0.106918499068414
0.100027668869317
0.0941885945993741
0.0892415136039978
0.0850154626771934
0.0813506041493574
0.0779227062217814
0.0742115818626012
0.0695010888067978
0.0628791295561966
0.0532376513794676
0.0394368049521068
0.0208267908407335
-0.00232605931834884
-0.0283926798197131
-0.0543710696362785
-0.0758862924193109
-0.0871904764984225
-0.0814553334682656
-0.0529630292974829
0.00522635398677174
0.0971863695235325
0.223223388440255
0.379876599852818
0.559976220532418
0.753438169046398
0.933247578184121
1.07267399611262
1.15294737470702
1.1632580695505
1.10075683993436
0.970630339100808
0.790797452407396
0.588343812714968
0.386163459571558
0.201896325172107
0.0479282343584668
-0.0686090953806033
-0.145838053909436
-0.186757043565557
-0.194540400110009
-0.177958665516725
-0.146208761353545
-0.106945114380347
-0.0662796565490474
-0.028781825003602
0.00252143791999737
0.0261456846937186
0.042341510399195
0.0529382531392801
0.0596271973617928
0.0638026287780316
0.0665668830072065
0.0687303455764393
0.0708114519207634
0.0730366873831241
0.0753837408356605
0.0779880537197705
0.0809325797913451
0.0842631465976502
0.0880241164055585
0.0922583862015501
0.0970073876917124
0.102311087301739
0.108207986176932
0.114727310275499
0.121893657796812
0.129752058776589
0.138337713850981
0.147674710220047
0.15777602164776
0.168643508462
0.180267917554561
0.192628882381143
0.205694922961359
0.219423445878731
0.233760744280693
0.248641997878588
0.263991272947669
0.279721522327099
0.295757732045188
0.312016067299107
0.328326632792345
0.344521854787031
0.360439996339831
0.375925157301945
0.390827274319103
0.405002120831569
0.418311307074143
0.430622280076155
0.441808323661468
0.451748558448482
0.460327941850126
0.467437268073865
0.472973168121694
0.476838109790145
0.478940372893935
0.479180477057128
0.477558067940001
0.474134495172833
0.46897834921553
0.462165461357626
0.453778903718281
0.443908989246282
0.432653271720043
0.420116545747606
0.406410846766638
0.391655451044435
0.375976875677918
0.359508878593637
0.342392458547768
0.324775855126113
0.306814548744103
0.288671260646794
0.270515952908869
0.25252582843464
0.234885330958045
0.217725214571629
0.201078140968581
0.185018126910744
0.169610502551135
0.154911013993293
0.140965823291276
0.127811508449664
0.115475063423556
0.103973898118572
0.0933158383908536
0.0834991260470616
0.0745124188443779
0.0663347904905054
0.0589357306436668
0.0522751449126059
0.0463033548565869
0.0409610979853944
0.0361918023683245
0.0319777543039768
0.0282743122108486
0.0250354163491029
0.0222174075458132
0.0197790271949628
0.0176814172574456
0.0158881202610653
0.0143650793005362
0.0130806380374824
0.0120055407004387
0.0111129320848498
0.0103783575530704
0.00977976303436612
0.00929749502491212
0.00891430058779386
0.00861680290365657
0.00841325035219154
0.00829553697712448
0.00824888006870916
0.00825968854700276
0.00831556296186647
0.00840529549296498
0.00851886994976681
0.00864746177154396
0.00878343802737219
0.00892035741613101
0.00905297026650353
0.00917721853697662
0.00929023581584071
0.0093903473211901
0.00947706990092251
0.00955111203273956
0.00961437382414659
0.00966994701245238
0.00972211496476949
0.00977635267801424
0.00983849974860279
0.00990400342504338
0.00996929816368253
0.0100329956314982
0.0100939896342962
0.0101514561167098
0.0102048531621997
0.0102539209930549
0.0102986819703915
0.0103394405941532
0.0103767835031118
0.0104115794748664
0.0104449794258438
0.0104784164112984
0.0105136056253124
0.0105525444007956
0.0105975122094854
0.0106510706619467
0.0107160635075725
0.0107956166345827
0.0108931380700257
0.0110042059943169
0.0111143009008849
0.0112532820522523
0.0114584670603675
0.0117711501300305
0.0122366020588925
0.0129040702374559
0.0138267786490743
0.0150619278699529
0.0166706950691476
0.0187182340085664
0.0212736750429678
0.0244101251199619
0.0282046677800105
0.0327383631564255
0.0380962479753715
0.0443673355558634
0.0516446158097676
0.0600250552418021
0.0696095969495358
0.0805031606233891
0.0927588085074301
0.10623592533997
0.120747409462703
0.136082414270765
0.152006038745262
0.16825932745327
0.184559270547834
0.200598803767972
0.216046808438669
0.23054811147088
0.243723485361531
0.255169648193517
0.264459263635705
0.271176596642399
0.275148528011555
0.276326143610115
0.274711605484155
0.270360242275983
0.263380549224143
0.253934188163413
0.242235987524807
0.228553942335573
0.213209214219192
0.196576131395382
0.179082188680095
0.161208047485517
0.143458644891133
0.126094861225781
0.109363853373828
0.0934973470621019
0.0786809604321226
0.0650542040401079
0.0527104808569717
0.0416970862683244
0.0320152080744721
0.0236199264904174
0.0164202141458597
0.0102655799790686
0.00497786133693812
0.000504938996603421
-0.00335116780290468
-0.0069688834606465
-0.0109070760137734
-0.015905057137528
-0.0228825821452439
-0.0329398499883456
-0.0473094995645607
-0.0665858628043346
-0.0904053686215761
-0.1170036621985
-0.143099887955264
-0.163896689549973
-0.173212297465803
-0.164836177985836
-0.131423500016823
-0.067519050293311
0.0297077305383975
0.160462747920243
0.322487293413241
0.508454129340867
0.696930970957127
0.865629300027161
0.994145493650576
1.06396082426145
1.05890722181848
0.97868161980196
0.838702611272655
0.656693338636653
0.452416066360186
0.247672180969628
0.0630896919466027
-0.0926889914651347
-0.213975547836156
-0.29839999048234
-0.34708777016441
-0.363786763003144
-0.354408992716858
-0.327249767847526
-0.289634912798454
-0.247819537321819
-0.206988036518669
-0.171254090838917
-0.14334586658504
-0.122880645924656
-0.108385558335672
-0.0985099461068102
-0.0920307407705748
-0.087852463103253
-0.0850072231249154
-0.0826642696191435
-0.0803955610291101
-0.0780824109612537
-0.0756201897724021
-0.0729185956461735
-0.0699016545929752
-0.0665077204500049
-0.0626894748812494
-0.0584139273774857
-0.0536624152562805
-0.04842637653044
-0.0426638947916752
-0.0363213966462385
-0.0293535689697761
-0.0217233720806737
-0.0134020397400564
-0.00436907915178936
0.00538772903752333
0.0158723307385376
0.0270803984191701
0.0389993311045978
0.0516082543772578
0.0648780203768485
0.0787712078003278
0.0932421219019147
0.108236794493088
0.123692983942588
0.139553000952886
0.155767227998134
0.172195989711416
0.188693919609394
0.20511906394412
0.22133288170304
0.237200244608992
0.252589437120208
0.267372156430312
0.281423512468321
0.294622027898645
0.306849638121087
0.317991691270843
0.327936948218501
0.336577582570043
0.343809180666843
0.349530741585668
0.353644677138677
0.356058919223462
0.356734539037293
0.355689728903638
0.352954591786832
0.348569036992292
0.342582780166526
0.335055343297124
0.326056054712762
0.315664049083204
0.303968267419296
0.291067457072974
0.277070171737258
0.262094771446252
0.246269422575147
0.229732097840222
0.212630576298839
0.195122443349445
0.177375090731576
0.159565716525851
0.141844587531744
0.12427885719666
0.106979820208736
0.0900511682530033
0.0735856973564686
0.0576653078881095
0.0423610045588778
0.0277328964216972
0.0138301968714651
0.000691223645051364
-0.0116566011787011
-0.0231967511789763
-0.0339235955929859
-0.0438423993159676
-0.0529693229011877
-0.061331422559938
-0.0689482874104747
-0.0758284521277897
-0.0820169269740099
-0.087558407166977
-0.092496189464563
-0.0968721721646703
-0.100726855105232
-0.104099339664211
-0.107027328759602
-0.109547126849429
-0.111693639931747
-0.11350037554464
-0.114999442766225
-0.116221552214647
-0.117196016048083
-0.11795074796474
-0.118512263202855
-0.118905678540696
-0.119154712296562
-0.119281684328781
-0.119305021528097
-0.119210128673816
-0.119003979192102
-0.118703078332015
-0.118322763310552
-0.117877203312649
-0.117379399491179
-0.116841184966952
-0.116273224828716
-0.115685016133158
-0.115084887904901
-0.114480001136506
-0.113876348788472
-0.113278755789236
-0.112690879035172
-0.112115207390592
-0.111553061687745
-0.111004594726819
-0.110468791275937
-0.109943468071164
-0.109425273816498
-0.108909689183878
-0.108391026813178
-0.107862431312213
-0.107310751068984
-0.106728064860008
-0.106124489824368
-0.105509390920149
-0.10489098389938
-0.104276335308032
-0.103671362486019
-0.103080833567195
-0.102508367479358
-0.101956433944248
-0.101426353477545
-0.100918297388874
-0.1004312877818
-0.0999631975538313
-0.099510750396418
-0.0990695207949522
-0.0986339340287682
-0.0981972661711424
-0.0977516440892935
-0.097288045444382
-0.0967962986915109
-0.0962650830797248
-0.0956819286520111
-0.0950332162452989
-0.0943041774904593
-0.0934788948123059
-0.0925403014295941
-0.0914701813550218
-0.0902491693952286
-0.0888567511507965
-0.0872715750380912
-0.0854303074125819
-0.083231101954674
-0.0805756994161159
-0.0773704787458101
-0.0735264570898144
-0.0689592897913409
-0.0635892703907563
-0.0573413306255826
-0.0501450404304957
-0.0419346079373267
-0.0326488794750614
-0.02223133956984
-0.0106301109449576
0.00220708563571281
0.016233846758824
0.0312681151958881
0.0471062097761928
0.0635270271688054
0.0802920418825736
0.0971453062661243
0.113813450507865
0.130005682635982
0.145413788518443
0.159712131862995
0.172557654217163
0.183589874968255
0.192430891343356
0.19873772271665
0.202421212524808
0.203426158029429
0.20174498908445
0.197426294857563
0.190574823830225
0.181351483797648
0.169973341868803
0.156713624466424
0.141901717326999
0.12592316550078
0.109211696363917
0.0920968574183538
0.0749106011727271
0.0579764383957396
0.0415728456399446
0.0259332652417438
0.011246105321388
-0.00234526021702236
-0.0147424916855385
-0.0258922836123613
-0.0358046365097365
-0.0447463253981398
-0.0526210754373401
-0.0592917888701266
-0.0647365769336892
-0.0690487598596184
-0.0724368668739055
-0.0752246361969423
-0.0778510150435215
-0.0808701596228363
-0.0849514351384809
-0.0908794157884497
-0.0995538847651382
-0.111989834255342
-0.129327829517569
-0.151608843886424
-0.176962427574149
-0.20264191532268
-0.225074397708809
-0.239860721144185
-0.24177548787531
-0.224767055983544
-0.182369278234828
-0.111090072570999
-0.00691691037297187
0.130390742797491
0.296201475467667
0.481011930253875
0.670446803861478
0.845258847084881
0.98135356156219
1.05637546971566
1.06233712447196
0.999275485522465
0.874034926597803
0.700267235467883
0.49843161394188
0.29430222291326
0.104212139692718
-0.0611208144042035
-0.194154760449514
-0.291121221126862
-0.352025120731534
-0.380218896795434
-0.380110251061347
-0.359331633587621
-0.325198564880641
-0.284110948828192
-0.241553072699461
-0.202093607145032
-0.169334218108074
-0.144357623078412
-0.125944198518855
-0.112820065809277
-0.103790263766888
-0.0977387486462263
-0.0936283941391658
-0.090500991374911
-0.0876324131695803
-0.0848330514359352
-0.0819760121475809
-0.0789517018933136
-0.0756687394865655
-0.0720539559654056
-0.0680523945925389
-0.0636273108553073
-0.0587601724656887
-0.0534450875691703
-0.0476452209693172
-0.0413098617831387
-0.0343949350765461
-0.0268630839662556
-0.0186836696197876
-0.00983277125546739
-0.000293186142424517
0.00994557039940652
0.0208872649992872
0.0325289462356739
0.0448609446362188
0.0578668726777694
0.0715236247863683
0.0858013773372546
0.100663588654861
0.116072478415132
0.132025513463088
0.148422412596277
0.165137430054054
0.18204602320361
0.199024852539973
0.21595178168601
0.232705877392422
0.249167409537751
0.265217851128371
0.280739878298498
0.295617370310182
0.309735409553312
0.322980281545612
0.335239474932644
0.346401681487809
0.356356796112342
0.364995916835317
0.372211344813643
0.37789658433207
0.381946651409644
0.384301012814907
0.384968035030317
0.383966830182959
0.381326071017048
0.377083990893927
0.371288383792068
0.36399660430707
0.355275567651662
0.345201749655699
0.333861186766168
0.321349476047182
0.307771775179983
0.293242802462941
0.277886836811554
0.261837717758452
0.245238845453388
0.228243180663248
0.211013244772043
0.193721119780915
0.176507136827073
0.159433545840547
0.142608812408497
0.126133571380363
0.110098250732781
0.0945830715695821
0.0796580481217896
0.0653829877476228
0.0518074909324948
0.0389709512890136
0.0269025555569812
0.0156212836033939
0.00513590842244332
-0.00455500386448543
-0.0134630940088126
-0.0216102096347635
-0.0290268995227682
-0.0357181043640229
-0.0417125110797937
-0.0470532402461739
-0.0517821663421658
-0.0559399177496812
-0.0595658767535405
-0.0626981795414736
-0.0653737162041194
-0.0676281307350258
-0.0694958210306499
-0.0710099388903578
-0.072202390016425
-0.0731038340140356
-0.0737436843912834
-0.0741501085591708
-0.0743500278316094
-0.0743691174254203
-0.0742318064603332
-0.0739612779589872
-0.0735748276824362
-0.0730466064011527
-0.0723863760428147
-0.0716150178300009
-0.0707518550015463
-0.0698146528125428
-0.0688196185343389
-0.0677814014545393
-0.0667130928770056
-0.0656262261218559
-0.064530776525465
-0.063435161440464
-0.0623462402357406
-0.0612693142964396
-0.0602081270239617
-0.0591648638359645
-0.0581401521663621
-0.0571330614653254
-0.0561411031992816
-0.0551602308509144
-0.0541848399191645
-0.0532077679192288
-0.052220294382561
-0.0512162902222051
-0.0502005937726525
-0.0491779036053716
-0.0481523742302157
-0.0471276512736912
-0.0461068714789579
-0.0450926627058283
-0.0440871439307686
-0.0430919252468975
-0.0421081078639874
-0.0411362841084636
-0.0401765374234046
-0.0392284423685422
-0.038291064620261
-0.037362960971599
-0.0364421793322473
-0.0355262587285503
-0.0346122293035052
-0.0336966123167626
-0.0327754201446263
-0.031844156280053
-0.0308978153326528
-0.0299308830286889
-0.0289373362110775
-0.0279106428393881
-0.0268437619898433
-0.0257291438553189
-0.0245587297453436
-0.0233239520860997
-0.0220156599247447
-0.0206084980916017
-0.0190592457690697
-0.0173230201156679
-0.0153495952077997
-0.0130834020397531
-0.0104635285236998
-0.00742371948969617
-0.00389237668568271
0.000207441222515981
0.00495801865119061
0.0104469830987485
0.0167673051457117
0.0240172984547189
0.0322923972787791
0.0416271414830512
0.052079917224274
0.0636849166566724
0.0764370298563405
0.0902918448212415
0.105165647471207
0.120935421647939
0.137438849115007
0.15447430955785
0.171800880583777
0.189138337721965
0.20616715442346
0.222528502061178
0.2378800165441
0.251931223517487
0.264304213430855
0.274678690280406
0.282797841611844
0.288468338520378
0.29156033565072
0.29200747119709
0.289806866903209
0.285019128062303
0.277768343517103
0.268242085659845
0.25659450340877
0.243124019180516
0.22825984188213
0.212399116358996
0.19590692278248
0.179116276649933
0.162328128784688
0.145811365336066
0.129802807779366
0.114507212915876
0.100097272872866
0.086713615103587
0.0744648023872782
0.0634273328291596
0.0536368211319019
0.0449549652544416
0.0374104630348769
0.0310465842502179
0.0258245073402102
0.021623319407336
0.0182400162168135
0.0153895021965971
0.0127045904373773
0.00973600269258068
0.00595236937837013
0.000740229573644502
-0.0065295780448863
-0.0172201498783203
-0.0324988549396065
-0.0525229631924103
-0.0764377204700192
-0.102376348475342
-0.127468717363376
-0.147882381423455
-0.157575831001522
-0.150543407998957
-0.121609138240325
-0.0664267314733697
0.0185204186309814
0.135912896784177
0.285212174403004
0.459033354524575
0.646047546996589
0.83141971160342
0.99680865806611
1.12036704604238
1.18139038476115
1.17302329809718
1.0965523360942
0.960211911879077
0.779185348097797
0.575604876915446
0.374620779115284
0.191845379841207
0.0384750763016221
-0.0788965817277283
-0.158329999387555
-0.201723247819131
-0.213331863186637
-0.200669945750008
-0.171055201606119
-0.131417959161231
-0.088301169130987
-0.0478597710568167
-0.0144389623410163
0.0116201331684534
0.0308318953318463
0.0440797134498604
0.0526159862636374
0.0580621219547628
0.0619875313636709
0.0650088261365199
0.0676024259517222
0.0701257793735455
0.0728158199972184
0.07578896644893
0.0790523380559476
0.0826554943594994
0.0866518483216906
0.0910813000225013
0.0959828663632545
0.101394681066614
0.107353994676588
0.113897174558523
0.121059486771661
0.128861692313769
0.137334875265281
0.146512359616489
0.156417117379784
0.167061768589657
0.178448581302697
0.190569471597592
0.203406003575129
0.216929389358193
0.231100489091769
0.24586981094294
0.26117751110089
0.276953393776898
0.293116911204345
0.309612283306446
0.326347877465667
0.343163416607249
0.359903153201743
0.376416155167294
0.39255630586964
0.408182304122117
0.423157664185652
0.43735071576877
0.450634604027588
0.46288728956582
0.473991548434772
0.483834972133346
0.492309967608039
0.499313757252941
0.50474837890974
0.508520685867714
0.510537785064348
0.510726763093207
0.509125364661554
0.505791810145048
0.500791151944843
0.49419527448759
0.486082894225434
0.476539559636014
0.465657651222467
0.453536381513422
0.440281795063007
0.426006768450843
0.410831010282047
0.39488106118723
0.3782902938225
0.361198912869459
0.343753955035205
0.326109289052332
0.308425615678927
0.290870467698575
0.273618209920355
0.256818357233277
0.240501270991666
0.224733789301008
0.209580493491574
0.195097181793169
0.181330869335136
0.168319788146351
0.156093387155226
0.144672332189708
0.134068505977279
0.124285008144956
0.115316155219291
0.107147480626373
0.0997557346918237
0.093108884640801
0.0871661145979979
0.0818778255876425
0.0771856355334982
0.0730401271987161
0.0694258052133079
0.0662988646373074
0.0636159450621776
0.0613359103342007
0.0594198485544782
0.057831072078931
0.0565351175182991
0.0554997457381421
0.0546949418588387
0.0540929152555868
0.053668099558404
0.0533971526521267
0.053258956676411
0.0532346180257322
0.0533074673493846
0.0534630595514823
0.0536896428210591
0.0539959799999692
0.0543783436396424
0.054822532600574
0.05531556303436
0.0558456683836969
0.0564022993823827
0.0569761240553159
0.0575590277184957
0.0581441129790225
0.0587256997350974
0.059299325176022
0.0598617437821996
0.0604109273251334
0.0609460648674282
0.0614675627627891
0.0619770446560224
0.0624773514830351
0.0629725414708352
0.0634678901375313
0.063968915448805
0.0644737383954025
0.0649790261557643
0.0654821785384105
0.0659810019118062
0.0664737092043619
0.0669589199044334
0.0674356600603216
0.0679033622802731
0.0683618657324794
0.0688114161450772
0.0692526658061487
0.0696866735637215
0.070114904825768
0.0705392315602062
0.0709619322948993
0.0713856921176558
0.0718136026762294
0.0722491621783191
0.0726962753915693
0.0731592536435693
0.0736428148218541
0.0741520833739038
0.0746925903071437
0.0752702731889443
0.0759006270764024
0.0766107840574375
0.0774245401945249
0.0783736648820134
0.0794980208105339
0.0808455639669988
0.0824723436346029
0.0844425023928223
0.0868262211846584
0.0897028175373032
0.0931732387781092
0.0973368165491904
0.10228923348444
0.108122523209532
0.114925070341919
0.122781610490833
0.131771874325442
0.14193583861906
0.153295587465529
0.165839761976075
0.179510342170343
0.194202646976399
0.209765334230731
0.226000400678246
0.24266318197227
0.259462352674553
0.276059926255263
0.292154040472083
0.30738642848987
0.321292615599609
0.333473091555388
0.343594159502302
0.351387935976452
0.35665235090495
0.359251147605914
0.359113882788467
0.356235926552743
0.350678462389882
0.34256848718203
0.332068377248164
0.319309448836224
0.30474829850684
0.288856849756428
0.272067671713857
0.254773979140449
0.237329632429975
0.22004913760866
0.203207646335182
0.187040955900667
0.171745509228698
0.157478394875307
0.144357347028977
0.132460745510646
0.121827615773701
0.112457628903983
0.104311101619785
0.0973046315716474
0.0913528135477608
0.086360343379933
0.0821568523910274
0.0784951601194346
0.0750512743190729
0.071459091495473
0.0670578858364664
0.0607024480937385
0.0513943544577768
0.0383231770714497
0.0208664840300051
-0.00138217000885993
-0.0273987244818691
-0.0539943848890244
-0.0770549897661396
-0.0916363901557246
-0.0919644496069857
-0.0715365629627743
-0.0251257492571397
0.0529162463372317
0.16520748543982
0.310043671464251
0.4813981496183
0.669423129490011
0.860602520352905
1.0256294932763
1.13994666509548
1.18806140199567
1.16354581951205
1.06903678252973
0.916235905283806
0.725379076975782
0.520765586817427
0.323315169739455
0.148656704176824
0.00712317095499099
-0.0962483467100985
-0.161713458964605
-0.19150878022571
-0.191768319662915
-0.171204968610754
-0.137505265327895
-0.0973293949971401
-0.0563111897254225
-0.0190581285438099
0.0108585547256727
0.0324184659057553
0.0473576233578378
0.0573011357760096
0.0636723219686073
0.0676927108582155
0.0703820414816659
0.0725483021717185
0.074609406650154
0.0767200302470923
0.0790047391019694
0.0815646562399883
0.0844774615721193
0.0877973918951002
0.0915552408914355
0.0957661577313445
0.10047646390678
0.105733570361561
0.111578836418172
0.118048833723789
0.125175346250281
0.132985370294208
0.141501114476821
0.150739999744063
0.16071465936657
0.171432938939669
0.182904138758229
0.195130278100245
0.208069566597332
0.221669953999929
0.235871298475478
0.250605366608418
0.26579583340019
0.281358282269237
0.297200205050999
0.313221001997919
0.32931198177944
0.345356361482005
0.361229266609058
0.376797731081043
0.391920697235404
0.406449015826585
0.420225446026033
0.433084655422193
0.444853220020512
0.455360404799002
0.464533886247353
0.472271511689491
0.478470424194564
0.483047021289315
0.485936954958081
0.487095131642795
0.486495712242983
0.484132112115765
0.480017001075857
0.474182303395568
0.466679197804801
0.457578117491057
0.446968750099425
0.434960037732595
0.421680176950847
0.407276618772057
0.391916068671695
0.375726876183178
0.358824813404833
0.341389526127645
0.323589887174503
0.305583676129054
0.2875175793357
0.269527189899597
0.251737007686657
0.234260439323548
0.217199798197691
0.200646304457266
0.184680085011205
0.169370173529197
0.154774510441686
0.14093994293987
0.127902224975705
0.115686175130247
0.10432458593044
0.0938132917972111
0.0841229360144083
0.0752232195544649
0.0670829010784006
0.0596697969358224
0.0529507811649233
0.046891785492483
0.0414577993338678
0.0366128697930305
0.0323201016625103
0.0285416574234331
0.0252387572455114
0.0223716789870441
0.0198997581949165
0.0177813881046008
0.0159740196401553
0.0144341614142253
0.0131173976242299
0.0119886979838986
0.0110315595355135
0.0102306788593332
0.00957132137864819
0.00903932135978069
0.0086210819120846
0.00830357498794559
0.00807434138278079
0.00792149073503934
0.00783370152620194
0.0078002210807811
0.00781086556632077
0.00785601999339686
0.0079266382156169
0.00801424292962011
0.00811092567507748
0.00820934683469171
0.00830273563419698
0.00838490692889193
0.0084593203923003
0.00853180427005557
0.00860221228144659
0.00867042173208893
0.00873633351392478
0.00879987210522343
0.00886098557058101
0.00891964556092029
0.00897584731349088
0.00902960965186944
0.00908097498595906
0.00913000931198998
0.00917680221251926
0.00922146685643049
0.00926413999893438
0.00930498198156837
0.00934417673219673
0.0093819317650104
0.00941847818052743
0.00945407066559245
0.00948898749337701
0.00952353052337956
0.00955802520142518
0.00959282055966593
0.0096339220664487
0.0096882517697543
0.0097493106697058
0.00981441524087623
0.00988517738390188
0.00996750442548217
0.0100715991183797
0.0102119596414201
0.010407379599492
0.0106809480235476
0.0110600493706019
0.0115763635237329
0.0122658657920821
0.0131688269108538
0.0143253987726583
0.0157421072460129
0.0175301880669433
0.019821681808624
0.0227367640426146
0.0263837453388588
0.0308590712656845
0.0362473223898044
0.0426212142763153
0.0500415974886985
0.05855745758882
0.0682059151369292
0.0790122256916614
0.090989779810035
0.104140103047454
0.118604226878386
0.134388459165187
0.150996132635022
0.167953461136599
0.184821301783232
0.201195154952846
0.216705164287978
0.231016116695772
0.243827442347984
0.25487321468098
0.263922150395735
0.270777609457835
0.275277595097475
0.277294753809459
0.276736375353205
0.273544392752738
0.267695382296692
0.259200563538314
0.24813650337851
0.234885704477725
0.21993224369768
0.203722957928159
0.1866702478404
0.169152077887094
0.151511976302384
0.134059035101866
0.117067910082589
0.100778820823053
0.0853975506832132
0.0710954468044748
0.0580094201096977
0.0462290646744771
0.0355134551316732
0.0259387113414927
0.0176736277375522
0.010772003692068
0.00517264351585656
0.000699356458333356
-0.00293904329248595
-0.00614873660998638
-0.00945089942895305
-0.0134817027455715
-0.0189923126174275
-0.0268488901635072
-0.0380325915641972
-0.0535111460818889
-0.073824126975353
-0.0984320087316882
-0.125304905411548
-0.150917878940587
-0.170250939109457
-0.177431163134615
-0.165745999537885
-0.128624840982879
-0.0614433995450334
0.0384629513971695
0.171799177162197
0.337183708933175
0.522385135198425
0.708823649521918
0.877120692286879
1.00711030418769
1.07783912622991
1.07263435983626
0.995701029647512
0.858984821886722
0.678501511750646
0.474362893823815
0.270482571450532
0.08439837266851
-0.0741427257334765
-0.198466543744111
-0.285914038303489
-0.337683851950914
-0.356924936648119
-0.350430523306094
-0.325449742786201
-0.288753914645897
-0.24663654713874
-0.204913337214385
-0.168757585912921
-0.140112769838894
-0.118397037156965
-0.102782550296247
-0.0922556267612413
-0.0856167391318357
-0.0814805150633073
-0.0784363695615928
-0.0759524142023213
-0.073743081426378
-0.0715638443437415
-0.0692277462948765
-0.0666054008507343
-0.0636249918127518
-0.0602722732128527
-0.0565570406770808
-0.0524176432843632
-0.0478090426266011
-0.0426910795625612
-0.0370269094445666
-0.0307830021184968
-0.0239291419237871
-0.0164384276934294
-0.00828727275397162
0.000544595074481791
0.0100741334782706
0.020314985650178
0.0312772306863205
0.042959133479972
0.0553427439800543
0.0684004968888171
0.0820955793557545
0.0963819309776052
0.111204243798352
0.126497962309222
0.142189283448687
0.158195156602463
0.17442328360351
0.190772118732033
0.20713086871548
0.223379492728544
0.239388702393164
0.255019961778521
0.270125487401041
0.284548248224395
0.298148975176049
0.310845203442282
0.322486554480928
0.332933192884864
0.342062518621506
0.349769167032804
0.355965008835245
0.360579150119851
0.363557932352181
0.364864932372329
0.364480962394925
0.362404070009136
0.358649538178665
0.35324988524175
0.346254864911165
0.33773146627422
0.327763913792763
0.316453667303174
0.303877398444525
0.290139006855155
0.275399838419399
0.259815628637069
0.243536440643319
0.226706665208643
0.209465020738879
0.191944553275202
0.174272636494135
0.156570971707538
0.138955587862613
0.121536841541907
0.104419416963304
0.0877023259800327
0.0714789080806629
0.0558368303891049
0.0408580879575092
0.0266107142896778
0.0131218928624455
0.000404699184661683
-0.0115324255569421
-0.022685674497752
-0.0330558750952719
-0.0426484891291236
-0.0514736127010465
-0.059545976234898
-0.0668849444766532
-0.0735145164944049
-0.0794633256783637
-0.0847646397408582
-0.0894563607163346
-0.0935810249613568
-0.0971858031546066
-0.100322500296884
-0.103047125908133
-0.105392949073203
-0.107386262511575
-0.109060435171171
-0.110446858544031
-0.111574946666314
-0.112472136118295
-0.11316388602437
-0.11367367805305
-0.114023016416967
-0.11423142787287
-0.114316461721626
-0.114293689808218
-0.114176706521751
-0.113977128795446
-0.113704596106642
-0.113366770476796
-0.112969336471484
-0.112516001200399
-0.112008494317353
-0.111467438494389
-0.110926030940621
-0.110384717408682
-0.109843485671867
-0.109302323456377
-0.108761218441319
-0.108220158258703
-0.107679130493443
-0.107138122683359
-0.106597122319176
-0.106056116844523
-0.105515093655934
-0.104974040102848
-0.104432943487608
-0.103891791065462
-0.103350570044563
-0.102809267585968
-0.102267870803641
-0.101726366764447
-0.101184687279041
-0.100637770092472
-0.100085028344306
-0.0995298118778074
-0.0989748294352483
-0.0984221486579093
-0.0978731960860794
-0.0973287571590556
-0.0967889762151435
-0.0962533564916566
-0.095720760124917
-0.0951894081502549
-0.094656880502009
-0.0941201160135259
-0.0935754124171611
-0.0930184263442776
-0.0924441733252473
-0.0918470277894501
-0.0912207230652743
-0.0905583513801165
-0.0898523638603814
-0.0890945705314822
-0.0883086073775326
-0.0875582095517504
-0.0867582224529272
-0.0858157437411405
-0.0846418273006457
-0.0831514832398775
-0.0812636778914488
-0.0789013338121513
-0.0759913297829554
-0.0724645008090104
-0.0682556381196437
-0.0633034891683619
-0.0575507576328502
-0.0509441034149719
-0.0434341426407697
-0.0349754476604648
-0.0255265470484563
-0.0150499256033232
-0.00351202434782233
0.00911675947111057
0.0228620723823615
0.0377425446575481
0.0535931643470179
0.070111863126213
0.0870153241831513
0.10401162709462
0.120800247826172
0.137072058732132
0.152509328555588
0.1667857224284
0.179566301871194
0.190507524793365
0.199258587343091
0.205567799950029
0.209304550629051
0.210383605596237
0.208781142795401
0.204534751898087
0.197743434303571
0.188567603138861
0.177229083258697
0.164011111245551
0.149258335409625
0.133375172803855
0.116706080025788
0.0995974586262358
0.0824089273484722
0.0654572211056983
0.049016190981043
0.0333168042275621
0.0185471442682394
0.00485241069598541
-0.0076650807263613
-0.018945898066035
-0.0291051811108913
-0.0382135185900506
-0.0461066682661028
-0.0527166228403058
-0.0580748334790104
-0.062312209813661
-0.0656591199407954
-0.0684453904220445
-0.0711003062841331
-0.0741526110188787
-0.0782305065831927
-0.0840616533990796
-0.0924731703536373
-0.104338254099726
-0.120575183536248
-0.141538690788318
-0.166303743945147
-0.192644469647454
-0.217034153087464
-0.234645238008912
-0.24017228365372
-0.227375064852299
-0.189683526344897
-0.122684798647517
-0.0241472534656652
0.105979496305647
0.26556882441443
0.45028204787762
0.641768819788339
0.818053129529646
0.96000659218944
1.05134844856046
1.07864556514031
1.03190363197858
0.917069051361935
0.753801036249997
0.561481006101592
0.358599679044424
0.162757071875078
-0.00963868361597203
-0.149477862797387
-0.254049196479549
-0.322885852310297
-0.357883228631292
-0.363298954478016
-0.345737403666716
-0.312554067830413
-0.271205694596731
-0.228231060063803
-0.188421645272182
-0.154821636204835
-0.128727923787148
-0.1096910712017
-0.0963091933103357
-0.0872737220635771
-0.0812533178887112
-0.0771452124491213
-0.0740752086442879
-0.0713976806097883
-0.0686955737172964
-0.0657804045745832
-0.0626908866146329
-0.0594062324854301
-0.0557955357856767
-0.0518191727212972
-0.0474386431956901
-0.0426165708097274
-0.0373167028617551
-0.0315039103475925
-0.0251441879605332
-0.0182046540913441
-0.0106535508282659
-0.00246112001319493
0.00638439517086725
0.0159075391938377
0.0261323772931812
0.0370727722969634
0.0487323846238512
0.0611046722831123
0.0741728908746155
0.0879100935888307
0.102279131206829
0.117232652100281
0.132713102231461
0.148652725153243
0.1649735620091
0.18158745153311
0.198396030049949
0.215293982240172
0.232204998293317
0.248988773223043
0.265488670392475
0.281555089298945
0.297045465573997
0.311824270983388
0.325763013427085
0.338740236939265
0.350641521688318
0.361359483976844
0.370793776241655
0.378851087053772
0.385445141118431
0.390496699275075
0.393933558497361
0.39568758982785
0.395692551357341
0.393976440178593
0.390592407265844
0.385600424088244
0.379067282609845
0.371066595289606
0.361678795081392
0.350991135433974
0.339097690291031
0.326099354091144
0.312103841767805
0.297225688749408
0.281586250959254
0.265313704815553
0.248543047231417
0.231416095614866
0.214081487868827
0.19669468239113
0.179417958074515
0.162416930599423
0.145764434534339
0.129524103185312
0.113776594240969
0.0985932913875104
0.0840363043087083
0.0701584686859065
0.0570033461980213
0.0446052245215404
0.0329891173305236
0.0221707642966031
0.0121566310889827
0.00294390937443806
-0.00547948318268277
-0.01313490292046
-0.0200529801794022
-0.0262736193024456
-0.031843425961595
-0.0367788139364841
-0.0411145568977193
-0.044894895520421
-0.0481623102151866
-0.0509575211280915
-0.0533194881406882
-0.055285410870007
-0.0568907286685558
-0.0581691206243199
-0.0591525055607622
-0.0598710420368231
-0.0603531283469206
-0.0606254025209501
-0.0607127423242849
-0.0606382652577753
-0.0604233285577497
-0.0600875291960137
-0.0596487038798504
-0.0591038305124202
-0.0584484347069866
-0.0576990516803219
-0.0568710604705258
-0.0559786706194109
-0.0550349221725029
-0.0540516856790401
-0.0530396621919739
-0.0520083832679685
-0.0509662109674012
-0.0499203378543617
-0.048876786996653
-0.047840411965791
-0.0468148968370044
-0.0458027561892346
-0.0448053351051362
-0.0438228091710764
-0.0428541844771356
-0.0418972976171069
-0.0409488156884965
-0.0400042362925229
-0.0390578875341182
-0.0381029280219272
-0.0371391155571321
-0.0361733656162401
-0.0352075417147825
-0.0342432220754346
-0.0332817037561097
-0.0323240026499599
-0.0313708534853754
-0.0304227098259847
-0.0294797440706552
-0.0285418474534921
-0.0276086300438396
-0.0266794207462798
-0.0257532673006335
-0.0248289362819599
-0.0239049131005563
-0.0229794020019589
-0.022050326066942
-0.0211153272115182
-0.0201717661869387
-0.0192167225796932
-0.0182469948115094
-0.0172591001393539
-0.0162492746554315
-0.0152148890962753
-0.0142410950760344
-0.0133255029984718
-0.0123930794314105
-0.011370655603122
-0.010186927402326
-0.00877245537819088
-0.0070596647403332
-0.00498284535881821
-0.00247815176415944
0.0005163968526814
0.00406091664029351
0.00821365908681843
0.0130310110199486
0.0185674946069284
0.0248757673545538
0.0320066221091723
0.0400089870566827
0.0489299257225359
0.0588146369717338
0.0697064550088302
0.0816468493779304
0.0946754249626913
0.108829921986321
0.124139970006997
0.140432819679324
0.157379706615559
0.174664654294235
0.1919746864725
0.208999827186124
0.225433100749492
0.240970531755607
0.255311145076092
0.268156965861188
0.279213019539751
0.28818733181926
0.294790928685808
0.298742877731478
0.299918916838434
0.298388062019729
0.294260890323351
0.287681020731893
0.278825114162555
0.267902873467149
0.255157043432092
0.24086341077841
0.225330804161737
0.208901094172315
0.191949193334994
0.174883056109233
0.158114543027866
0.141860954064779
0.126322522656437
0.111678535899035
0.098072121589257
0.0856102482242672
0.0743637250017161
0.0643672018197379
0.055619169276951
0.0480819586724582
0.0416817420058463
0.0363085319771865
0.0318076019345905
0.0280318494968583
0.0248526896084202
0.0219962132743668
0.0190333939112748
0.0153800873472075
0.0102970318217146
0.00288984798583197
-0.00789096109791726
-0.0230469288275779
-0.0428210559878436
-0.0666171496749544
-0.0925901786039306
-0.117628000085988
-0.137351360028538
-0.146239521976753
-0.138853887968824
-0.108616935090412
-0.0504332829607658
0.0386568490848186
0.159477641995002
0.3107176770024
0.48838680731771
0.678273190274035
0.861492733751215
1.01929869325492
1.13309117100325
1.18441711592676
1.15835629561743
1.06073541196046
0.907193640504229
0.716731586566471
0.51171965327593
0.316005519728169
0.144266417819941
0.00525875093724404
-0.0962436339296158
-0.159514565233915
-0.187867610457766
-0.186660702061964
-0.163823943158189
-0.127911603665136
-0.0861632993680479
-0.0445039919187113
-0.00754398883546059
0.0216268010252307
0.0430559602187873
0.0581872731609793
0.0684062335631917
0.0750241052961638
0.0792779223899885
0.0823300985178784
0.0849902569183488
0.0875075572631946
0.0900756736275491
0.0928453197373782
0.0959242489694808
0.0993772543514887
0.103226180661256
0.10749178712273
0.112228977133512
0.117479842900814
0.123283917473447
0.129678174741822
0.13669702943795
0.144372337135442
0.152733394249508
0.161806904666065
0.171604975559287
0.182138518201522
0.193417843317159
0.20544106630359
0.218194107231215
0.231650690843439
0.245772346556671
0.260508408460326
0.275796015316823
0.291560110561589
0.307713442303055
0.324156563322655
0.340777831074833
0.357453407687033
0.374047259959708
0.390455201608561
0.406557391478905
0.422161543168566
0.437088465824632
0.451172668720132
0.464262361254033
0.476219452951243
0.486919553462607
0.496251972564911
0.504119720160878
0.510439506279173
0.515141741074398
0.518170534827093
0.519483697943741
0.519052740956761
0.516862874524512
0.512912479806302
0.507093415673812
0.499445301028351
0.490146689544744
0.479370610795679
0.467284570251711
0.454050549281261
0.439825005150614
0.42475887102392
0.408997555963195
0.392680944928322
0.375943398777046
0.358913754264979
0.341715324045598
0.324465896670248
0.307277736588134
0.29025758414633
0.273506655589775
0.257120643061273
0.241189714601492
0.225798514148968
0.2110261615401
0.196946252509152
0.183626858688257
0.171130527607408
0.159514282694468
0.148786026231991
0.13889976965846
0.129828813790895
0.121544911460328
0.114018262389349
0.107217513192101
0.101109757374281
0.0956605353331396
0.0908338343574832
0.0865920886276713
0.0828961792156178
0.0797054340847905
0.0769776280902119
0.0746689829784583
0.0727341673876602
0.0711262968475027
0.0697953442601867
0.0686957672741722
0.0678128344168527
0.0671345806936944
0.0666482128230267
0.0663401092360418
0.066195820076795
0.0662000672022046
0.0663367441820519
0.0665889162989811
0.0669388205484995
0.0673678656389776
0.0678566319916484
0.0683848717406083
0.0689315087328167
0.0694746385280958
0.0699915283991309
0.070484494497029
0.0709734130036094
0.0714582984108366
0.0719391542391873
0.0724159841797113
0.0728887920940309
0.0733575820143414
0.0738223581434109
0.0742831248545806
0.074739886691764
0.0751926483694477
0.0756414147726915
0.0760861909571274
0.0765269821489604
0.0769637937449687
0.0773968212264688
0.0778264156249812
0.0782521978296503
0.0786738607734253
0.0790912202431625
0.079504214879625
0.0799129061774828
0.0803174784853121
0.0807182390055967
0.0811156177947264
0.0815101677629983
0.0819025646746158
0.0822936071476895
0.0826842166542365
0.0830754375201805
0.0834684379361753
0.0838785450694483
0.084311027565066
0.0847577750857756
0.0852172662949247
0.085694568856462
0.0862013394349374
0.086755823695501
0.0873828563039045
0.0881138609265004
0.0889868502302419
0.0900464258826834
0.0913437785519801
0.0929366879068879
0.094889522616764
0.0972732403515663
0.100159997884037
0.103593052458297
0.107717807060042
0.112683320790167
0.118612230256488
0.125600749573738
0.13371867036357
0.143009361754554
0.15348977038218
0.165150420388856
0.177955413423907
0.191842428643579
0.206722722711035
0.222548667478657
0.239376922151359
0.256698199525686
0.27397665178634
0.290726294930978
0.306511008770211
0.320944536927602
0.333690486839672
0.344462329755893
0.353023400738691
0.359186898663449
0.362815886218501
0.363823289905137
0.3621719000376
0.357874370743088
0.350993219961753
0.341640829446701
0.329979293413165
0.316232015205173
0.300846082403776
0.28430997637118
0.267067873486773
0.24951964514713
0.232020857766009
0.214882772774353
0.198372346620291
0.182712230769134
0.16808077170338
0.15461201092271
0.142395684943989
0.131477225301269
0.121857758545786
0.113494106245957
0.106298784987388
0.100106875254199
0.0948337339385465
0.0904500895589659
0.0867609770725765
0.0834025659075034
0.0798421599628771
0.0753781976088336
0.0691402516865146
0.0601027945951245
0.0473357890193191
0.029717505495543
0.00719964963265662
-0.0188227929495582
-0.0455115566203976
-0.0685850957382356
-0.0828227296156362
-0.0813771696307292
-0.0574617921768294
-0.00584404004454736
0.0771538234108788
0.193654714269584
0.343919325263546
0.520365217699812
0.708117708306877
0.889259010052127
1.04291391526041
1.14525884871296
1.1757778989512
1.13164683912799
1.01943251762573
0.852992621334322
0.653475675651158
0.44853481736668
0.258675640282412
0.0965464212516461
-0.0296500117838759
-0.116907844998598
-0.166387230781276
-0.182536712303663
-0.172864713463134
-0.144841551978881
-0.105831007423412
-0.0630903212225577
-0.0236423501974646
0.00878530291168556
0.0337896101672148
0.0516689932934749
0.0633753678936982
0.0705141434499983
0.0750883679498016
0.0781403475496314
0.080371070920909
0.0823147012050374
0.0843205031615502
0.0865528431681102
0.0890344670280704
0.091846912091305
0.095040436872997
0.0986588119531169
0.102744691100165
0.107339611271171
0.112483992611695
0.118214899702254
0.124558184507699
0.131559176833925
0.139258564101674
0.147687157703546
0.156865893004005
0.166805829339371
0.177508150017828
0.188964162319417
0.201155297496042
0.214053110771466
0.227619281341311
0.241805612373062
0.256554031006061
0.271823899823554
0.287549537274991
0.303583182535291
0.319777285031697
0.335986009471816
0.352065235843621
0.367872559415453
0.383267290736016
0.398110455634382
0.412264795219985
0.42559476588263
0.437966539292484
0.44924800240008
0.459308757436318
0.468020121912464
0.475255128620147
0.480888525631365
0.484796888635802
0.486892538600085
0.487173377040463
0.485659639166352
0.482383050729431
0.47738682802365
0.47072567788522
0.462465797692624
0.452684875366608
0.441472089370188
0.428928108708642
0.41516509292952
0.400306692122633
0.384488046920062
0.367855788496156
0.350568038567526
0.332794409393054
0.314716003773887
0.296525415053437
0.278425883786275
0.26053093555189
0.242919990527153
0.225703390701476
0.208979674731768
0.192835577942431
0.177346032325364
0.16257416653996
0.148571305913107
0.135376972439188
0.123018884780081
0.111512958265161
0.100863304891296
0.0910622333228491
0.0820902488916793
0.0739160535971404
0.0664965461060812
0.0597803020337863
0.0537518464107414
0.0483716856108974
0.0435895124817376
0.0393571254905648
0.0356284287245019
0.0323594318904912
0.0295082503152945
0.0270351049454938
0.0249023223474902
0.0230743347075051
0.0215176798315791
0.0202010011455728
0.0190950476951662
0.0181726741458592
0.0174088407829714
0.0167806135116418
0.0162671638568296
0.0158521205397771
0.0155533357781635
0.0153623567226558
0.0152594957941065
0.0152267682930582
0.015247892399743
0.0153082891740826
0.0153950825556887
0.0154970993638624
0.0156048692975947
0.0157106249355663
0.0158083017361476
0.0158935380373987
0.0159636750570696
0.0160177568925994
0.0160565305211178
0.0160824457994435
0.0160996554640852
0.0161140151312414
0.0161330832968
0.0161638800792769
0.0162019982758487
0.0162435377593921
0.0162855455000618
0.0163255097621132
0.0163613601039022
0.0163914673778857
0.016414643730621
0.0164301426027666
0.0164376587290812
0.0164373281384245
0.016429728153757
0.0164158773921397
0.0163972357647345
0.0163757044768038
0.0163536260277112
0.0163337842109204
0.0163194041139963
0.0163141521186043
0.0163221359005105
0.0163479044295819
0.0163964479697862
0.0164731980791916
0.0165840276099671
0.0167352507083827
0.0169341423689078
0.0172070149728202
0.0175833750946454
0.0180946539242764
0.0187810535509298
0.0196915469631453
0.0208838780487862
0.0224245615950394
0.0243888832884153
0.0268608997147473
0.0299334383591929
0.0337080976062328
0.0382952467396708
0.0438062642532419
0.0502913020064421
0.0578728388534094
0.0666560338870911
0.0766981331221845
0.0880084694951379
0.100548462864149
0.114231620009169
0.128923534631895
0.144441887355778
0.160556445726019
0.176989064209568
0.193413684195128
0.209478888060266
0.224860778234501
0.239079532650743
0.251694382239497
0.262332190189802
0.27068745194923
0.276522295223883
0.279666479978395
0.280017398435934
0.277540075078198
0.27226716664542
0.264292516171501
0.253772632198118
0.241086546573634
0.226640744571244
0.210827906223656
0.1940269063231
0.176602814421321
0.15890689482958
0.141276606618659
0.124035603618854
0.10749373441998
0.0919435322671477
0.0775525799047508
0.0644013160226442
0.0525474843662576
0.0420124360247437
0.0327811294309788
0.0248021303615619
0.0179876119368153
0.0122133546207844
0.0073187462212379
0.00310678188966751
-0.000648648187537626
-0.00414186471054756
-0.00830777975638092
-0.0142197642482341
-0.0228163270266342
-0.0349011148494381
-0.0511429123918333
-0.0720756422463372
-0.0975797560489123
-0.124692700149719
-0.149009866204415
-0.165348892449065
-0.167748570884826
-0.149470852299006
-0.10475375634621
-0.0278164905068052
0.084572644316306
0.230631037210298
0.403561767252421
0.591724564138676
0.779645443618589
0.937946179155992
1.04167940401481
1.07590411212246
1.03568565806989
0.926095757111507
0.762212485165262
0.567411519255118
0.362958067416345
0.167765072846998
-0.00381705974537544
-0.142312232074439
-0.243118652275067
-0.306508834903345
-0.335754543599676
-0.33588934926686
-0.315224484344896
-0.281254788709794
-0.240578074140939
-0.1988951243211
-0.161009694836423
-0.130642440437215
-0.108205311642632
-0.0922301219711151
-0.0813292114330925
-0.0742201724912293
-0.0697258500604276
-0.0667743415078271
-0.0644209097509301
-0.0622087604755009
-0.0599934638667237
-0.0576472833827872
-0.0550634867998508
-0.0521563462120451
-0.0488611380314714
-0.0451341429882015
-0.0409526461302786
-0.0363094118286543
-0.0311654916955688
-0.0254671532251687
-0.0191678786048924
-0.0122283444865633
-0.00461642198638906
0.00369282331503812
0.0127171313727411
0.0224670476773588
0.0329459232551449
0.044149914667969
0.0560679840133154
0.0686818989242851
0.0819662325695931
0.0958883636535708
0.110414250320998
0.125546273121964
0.14118274130801
0.157194482391416
0.173452906788566
0.189830007819943
0.206198361710131
0.222431127587817
0.238402047485786
0.253985446340926
0.269056231994225
0.283489895190773
0.297162509579759
0.309950731714475
0.321731801052312
0.332383539954764
0.341784353687424
0.349813230419987
0.356349741226248
0.361274040084105
0.364475753337802
0.365929698813545
0.365645977012152
0.363643489840256
0.359952466515845
0.354614463568262
0.347682364838204
0.339220381477726
0.329304051950237
0.318020242030499
0.305467144804633
0.291754280670113
0.277002497335769
0.261343969821786
0.244922200459703
0.227892018892418
0.21041958207418
0.192682374270596
0.17486860388871
0.157093101357144
0.139448111902864
0.122054669153996
0.105022217336868
0.0884486112760121
0.0724201163941631
0.0570114087122598
0.042285574849444
0.0282941120230608
0.0150769280486591
0.00266234133999016
-0.00893291909099064
-0.0197037136341247
-0.0296564920810505
-0.0388092936252026
-0.047189092216155
-0.0547956227364709
-0.0616616650857676
-0.067833398902377
-0.0733556660842173
-0.0782719707887927
-0.082624479433194
-0.0864540206940977
-0.0898000855077672
-0.0927008270700513
-0.0951930608363857
-0.0973122645217919
-0.0990925781008778
-0.100566803807837
-0.101766406136451
-0.102721511840085
-0.103460909931692
-0.104012051683811
-0.104401050628567
-0.104652682557672
-0.104790235588881
-0.104803972618461
-0.104690419616081
-0.104468745941229
-0.104156734166061
-0.103770780075407
-0.103325892666767
-0.102835694150314
-0.102312419948891
-0.101766918698013
-0.101208652245866
-0.100645695653307
-0.100084737193865
-0.0995310783537409
-0.0989886338318061
-0.0984599315396035
-0.0979461126013477
-0.0974469313539243
-0.0969607553468907
-0.0964845653424754
-0.0960139553155783
-0.0955431324537707
-0.0950649171572953
-0.0945701404630789
-0.0940494429778198
-0.0935089693909777
-0.0929566179204023
-0.0923993425695033
-0.0918431531272519
-0.0912931151681801
-0.0907533500523806
-0.0902270349255073
-0.089716402718775
-0.0892227421489593
-0.0887463977183966
-0.0882867697149844
-0.0878423142121813
-0.0874105430690064
-0.0869880239300401
-0.0865703802254233
-0.0861522911708583
-0.0857274917676079
-0.0852887728024962
-0.0848279808479079
-0.0843360182617889
-0.0838028431876456
-0.0832174695545458
-0.0825679670771181
-0.0818414612555516
-0.0810241333755968
-0.0801012205085651
-0.0790570155113285
-0.0778748900176623
-0.0765289948429121
-0.0749466921970215
-0.0730424637955894
-0.070731379516561
-0.0679290974002282
-0.0645518636492299
-0.060516512628551
-0.0557404668655235
-0.050141737049826
-0.0436389220334835
-0.0361512088308678
-0.0275983726186972
-0.017900776736037
-0.006979143715511
0.00520902900408582
0.0185819769293721
0.0330116174957474
0.0483415722892352
0.0643871670464841
0.0809354316547665
0.0977451001519793
0.114546610726644
0.131042105717907
0.146905431615538
0.161782139059931
0.175289482842106
0.187016421903706
0.196540205973985
0.203648460281614
0.208186672014952
0.210037409334014
0.209150741659848
0.205544239674539
0.199302975321202
0.190579521803991
0.179593953588092
0.166633846399725
0.152054277226146
0.136274969365266
0.119648001768424
0.102539315303277
0.0853251049296721
0.0683364519844844
0.0518593241816202
0.0361345756120163
0.0213579467436395
0.00768006442148716
-0.00479355813241295
-0.0160047361467764
-0.0260565485871493
-0.0349138478042325
-0.0424971356315334
-0.0488114923945685
-0.0539465769108627
-0.05807662648995
-0.0614604569333725
-0.0644414625346816
-0.067447616079437
-0.0709914688452075
-0.0756701506015701
-0.0821412435060603
-0.0913263227465519
-0.104833932572157
-0.123346901866469
-0.146373284372673
-0.172246358693542
-0.198124628291443
-0.220149584968125
-0.23263477601655
-0.228704323173888
-0.202508815973419
-0.149297965729498
-0.0654206055375453
0.0516818974599045
0.202763207787411
0.378913387935458
0.566059468528158
0.7477113695164
0.904961900177853
1.01648675911697
1.05989106700944
1.02865724477444
0.930386829375699
0.777539337049725
0.587353652940618
0.381848031100061
0.185182780575491
0.0107919741414443
-0.133721147360825
-0.243640211068798
-0.317155879098299
-0.355365848543497
-0.362274851476905
-0.34479465494938
-0.312027532100515
-0.270894046125756
-0.227905145196164
-0.188041399373833
-0.154492532447686
-0.128657421933473
-0.110144099073771
-0.097192965771339
-0.0884935203275398
-0.082719398587616
-0.0787598949563506
-0.0757489440713351
-0.0730651208029697
-0.0703316402544634
-0.0674163577618334
-0.0643556729728569
-0.0610129102890975
-0.0573309699197235
-0.053268865372666
-0.0487868080309523
-0.0438462071527055
-0.0384096698711455
-0.0324410011945879
-0.0259052040064447
-0.0187684790652238
-0.0109984460045076
-0.00257949339770752
0.00651437947418509
0.0163127006172463
0.0268345201303024
0.0380884102049284
0.0500724651254504
0.0627743012689433
0.0761710571052325
0.0902293931968928
0.104905492199249
0.120145058860376
0.135883320021097
0.152045024614988
0.168544443668372
0.185285370300323
0.202170280733057
0.219116394660968
0.23597183308464
0.252580995094206
0.268794275106037
0.284468062862738
0.299464743433152
0.313652697212358
0.326906299921669
0.339105922608637
0.350137931647047
0.359894688736924
0.368274550904525
0.375181870502346
0.380526995209117
0.384226268029807
0.386199013522617
0.386426365200893
0.384937482785139
0.381771034144752
0.376975076798311
0.370607057913574
0.362733814307483
0.35343157244616
0.342785948444907
0.330891948068211
0.317853966729737
0.303785789492332
0.288810591068027
0.27306093581803
0.256678777752734
0.239815460531712
0.222631717463718
0.205297671506687
0.187992835267737
0.170845428646294
0.153923172732527
0.137333164322256
0.121171992731641
0.105525529723525
0.0904689295074316
0.0760666287395654
0.0623723465228144
0.0494290844067476
0.0372691263876159
0.0259140389083526
0.015374670858572
0.00565115357457086
-0.00326709916067242
-0.0114013911174979
-0.0187837436195636
-0.0254467558913289
-0.031399123086831
-0.0366833448425343
-0.0413444230554426
-0.0454258816443716
-0.0489697665499489
-0.0520166457346139
-0.0546056091826176
-0.0567742689000232
-0.0585587589147054
-0.0599937352763509
-0.0611123760564584
-0.0619463813483381
-0.0625259732671124
-0.062879895949715
-0.0630354155548921
-0.0630183202632013
-0.0628529202770121
-0.0625620478205059
-0.0621425401638003
-0.0615791466150734
-0.0608938659659082
-0.0601074558150763
-0.0592390149503347
-0.0583059833484266
-0.057324142175081
-0.0563076137850129
-0.0552688617219232
-0.0542186907184987
-0.0531662466964125
-0.0521190167663229
-0.0510828292278748
-0.0500618535696987
-0.0490586004694109
-0.0480739217936143
-0.047107010597897
-0.0461554011268333
-0.0452149688139834
-0.0442799302818936
-0.0433428433420958
-0.0423946069951083
-0.0414297571661701
-0.0404536568537198
-0.0394710334825165
-0.0384860691973869
-0.0375024072151738
-0.0365231518247358
-0.0355508683869472
-0.0345875833346983
-0.0336347841728952
-0.0326934194784599
-0.0317638989003302
-0.0308460931594597
-0.029939334048818
-0.0290424144333905
-0.0281535882501783
-0.0272705705081986
-0.0263905372884842
-0.0255101257440839
-0.0246254341000624
-0.0237320216535001
-0.0228249087734935
-0.0218985769011545
-0.0209469685496115
-0.0199634873040079
-0.0189409978215041
-0.0178718258312751
-0.0167477581345125
-0.0155600426044237
-0.0142993511752192
-0.0129402975965139
-0.0114386431970143
-0.00974855980243644
-0.00781826208641823
-0.0055900075705192
-0.00300009662422029
2.11275350757711e-05
0.00354927884204481
0.00766592838344093
0.0124586043980965
0.0180207922769227
0.0244519345629087
0.0318574309511223
0.040320024787197
0.0498789062039064
0.0605995036100456
0.0725072601601852
0.0855850863310789
0.0997733599216624
0.114969926053054
0.131030097168553
0.147766653033642
0.164949840735987
0.182307374685434
0.199524436614013
0.216243675575935
0.232087621661974
0.246762665185293
0.25986982662802
0.271048408704951
0.280005379214919
0.286515371040787
0.290420682149454
0.291631275591852
0.290124779502944
0.28594648710173
0.279209356691241
0.270094011658541
0.25875856720571
0.245491562917817
0.230747419133755
0.214946594890769
0.198474941143473
0.181683700763844
0.164889508541223
0.14837439118232
0.132385767311206
0.11713644746932
0.102804634115464
0.0895339216258091
0.0774332962938867
0.0665771363305966
0.056993744077166
0.0484534592210967
0.0410115303319609
0.0347777119920943
0.0297483628238453
0.0258064454895737
0.0227215266916517
0.0201497771724635
0.0176339717144054
0.0146034891398856
0.0103743123113246
0.00414902813115448
-0.00498317245817992
-0.0179309687360303
-0.0355174282414342
-0.0577258867099307
-0.0831874910458879
-0.109178770519435
-0.131621636766462
-0.145495846517708
-0.144537741152005
-0.122535541645564
-0.0744607315194378
0.00353104465711279
0.114100515461024
